"PAR 10 ug/mL"
"Wavelength nm.","Abs."
400.0,0.0010
399.5,0.0009
399.0,0.0011
398.5,0.0011
398.0,0.0011
397.5,0.0007
397.0,0.0016
396.5,0.0004
396.0,0.0013
395.5,0.0017
395.0,0.0003
394.5,0.0010
394.0,0.0020
393.5,0.0009
393.0,0.0006
392.5,0.0016
392.0,0.0007
391.5,0.0017
391.0,0.0009
390.5,0.0005
390.0,0.0007
389.5,0.0002
389.0,0.0011
388.5,0.0009
388.0,0.0007
387.5,0.0006
387.0,0.0011
386.5,0.0012
386.0,0.0008
385.5,0.0010
385.0,0.0012
384.5,0.0008
384.0,0.0009
383.5,0.0010
383.0,-0.0000
382.5,0.0007
382.0,0.0015
381.5,0.0017
381.0,0.0008
380.5,0.0013
380.0,0.0011
379.5,0.0008
379.0,0.0005
378.5,0.0006
378.0,0.0012
377.5,0.0018
377.0,0.0012
376.5,0.0015
376.0,0.0006
375.5,0.0014
375.0,0.0011
374.5,0.0009
374.0,0.0007
373.5,0.0005
373.0,0.0010
372.5,0.0013
372.0,0.0015
371.5,0.0006
371.0,0.0012
370.5,0.0015
370.0,0.0010
369.5,0.0015
369.0,0.0007
368.5,0.0013
368.0,0.0004
367.5,0.0008
367.0,0.0012
366.5,0.0008
366.0,0.0010
365.5,0.0013
365.0,0.0012
364.5,0.0016
364.0,0.0015
363.5,0.0009
363.0,0.0006
362.5,0.0005
362.0,0.0010
361.5,0.0006
361.0,-0.0000
360.5,0.0013
360.0,0.0010
359.5,0.0015
359.0,0.0008
358.5,0.0007
358.0,0.0003
357.5,0.0019
357.0,0.0012
356.5,0.0005
356.0,0.0012
355.5,0.0009
355.0,0.0003
354.5,0.0009
354.0,0.0012
353.5,0.0004
353.0,0.0004
352.5,0.0010
352.0,0.0009
351.5,0.0009
351.0,0.0011
350.5,0.0011
350.0,0.0004
349.5,0.0013
349.0,0.0005
348.5,0.0006
348.0,0.0012
347.5,0.0008
347.0,0.0001
346.5,0.0010
346.0,0.0015
345.5,0.0007
345.0,0.0011
344.5,0.0012
344.0,0.0007
343.5,0.0007
343.0,0.0010
342.5,0.0010
342.0,-0.0002
341.5,0.0003
341.0,0.0009
340.5,0.0012
340.0,0.0003
339.5,0.0007
339.0,0.0012
338.5,0.0003
338.0,0.0007
337.5,0.0005
337.0,0.0006
336.5,0.0010
336.0,0.0009
335.5,0.0011
335.0,0.0006
334.5,0.0009
334.0,0.0011
333.5,0.0006
333.0,0.0000
332.5,0.0008
332.0,0.0012
331.5,0.0009
331.0,0.0010
330.5,0.0007
330.0,0.0013
329.5,0.0002
329.0,0.0004
328.5,0.0011
328.0,0.0004
327.5,0.0009
327.0,0.0004
326.5,0.0004
326.0,-0.0002
325.5,0.0009
325.0,0.0004
324.5,0.0017
324.0,0.0011
323.5,0.0004
323.0,0.0009
322.5,0.0013
322.0,0.0007
321.5,0.0002
321.0,0.0006
320.5,0.0012
320.0,0.0007
319.5,0.0012
319.0,0.0014
318.5,0.0004
318.0,0.0010
317.5,0.0003
317.0,0.0007
316.5,0.0014
316.0,0.0006
315.5,0.0013
315.0,0.0012
314.5,0.0012
314.0,0.0014
313.5,0.0016
313.0,0.0016
312.5,0.0014
312.0,0.0016
311.5,0.0019
311.0,0.0032
310.5,0.0031
310.0,0.0022
309.5,0.0019
309.0,0.0037
308.5,0.0031
308.0,0.0039
307.5,0.0038
307.0,0.0042
306.5,0.0052
306.0,0.0053
305.5,0.0059
305.0,0.0055
304.5,0.0066
304.0,0.0075
303.5,0.0082
303.0,0.0090
302.5,0.0091
302.0,0.0097
301.5,0.0108
301.0,0.0126
300.5,0.0124
300.0,0.0139
299.5,0.0149
299.0,0.0167
298.5,0.0165
298.0,0.0185
297.5,0.0196
297.0,0.0211
296.5,0.0218
296.0,0.0234
295.5,0.0244
295.0,0.0257
294.5,0.0266
294.0,0.0290
293.5,0.0294
293.0,0.0308
292.5,0.0329
292.0,0.0330
291.5,0.0345
291.0,0.0362
290.5,0.0372
290.0,0.0388
289.5,0.0398
289.0,0.0415
288.5,0.0414
288.0,0.0427
287.5,0.0441
287.0,0.0454
286.5,0.0449
286.0,0.0476
285.5,0.0467
285.0,0.0490
284.5,0.0488
284.0,0.0503
283.5,0.0499
283.0,0.0518
282.5,0.0519
282.0,0.0536
281.5,0.0539
281.0,0.0547
280.5,0.0552
280.0,0.0570
279.5,0.0568
279.0,0.0582
278.5,0.0592
278.0,0.0611
277.5,0.0631
277.0,0.0651
276.5,0.0669
276.0,0.0691
275.5,0.0719
275.0,0.0742
274.5,0.0769
274.0,0.0800
273.5,0.0840
273.0,0.0875
272.5,0.0925
272.0,0.0968
271.5,0.1004
271.0,0.1072
270.5,0.1119
270.0,0.1172
269.5,0.1242
269.0,0.1304
268.5,0.1398
268.0,0.1452
267.5,0.1563
267.0,0.1636
266.5,0.1727
266.0,0.1823
265.5,0.1920
265.0,0.2019
264.5,0.2119
264.0,0.2228
263.5,0.2361
263.0,0.2460
262.5,0.2588
262.0,0.2705
261.5,0.2820
261.0,0.2959
260.5,0.3091
260.0,0.3251
259.5,0.3363
259.0,0.3513
258.5,0.3663
258.0,0.3801
257.5,0.3916
257.0,0.4073
256.5,0.4232
256.0,0.4367
255.5,0.4507
255.0,0.4668
254.5,0.4792
254.0,0.4915
253.5,0.5065
253.0,0.5210
252.5,0.5323
252.0,0.5438
251.5,0.5548
251.0,0.5667
250.5,0.5795
250.0,0.5897
249.5,0.5999
249.0,0.6130
248.5,0.6172
248.0,0.6271
247.5,0.6368
247.0,0.6440
246.5,0.6496
246.0,0.6543
245.5,0.6593
245.0,0.6633
244.5,0.6650
244.0,0.6681
243.5,0.6717
243.0,0.6694
242.5,0.6695
242.0,0.6660
241.5,0.6626
241.0,0.6648
240.5,0.6589
240.0,0.6553
239.5,0.6489
239.0,0.6391
238.5,0.6339
238.0,0.6297
237.5,0.6199
237.0,0.6132
236.5,0.6012
236.0,0.5875
235.5,0.5798
235.0,0.5714
234.5,0.5549
234.0,0.5471
233.5,0.5311
233.0,0.5194
232.5,0.5077
232.0,0.4918
231.5,0.4796
231.0,0.4663
230.5,0.4505
230.0,0.4372
229.5,0.4244
229.0,0.4106
228.5,0.3960
228.0,0.3803
227.5,0.3677
227.0,0.3570
226.5,0.3424
226.0,0.3297
225.5,0.3191
225.0,0.3097
224.5,0.2989
224.0,0.2902
223.5,0.2801
223.0,0.2714
222.5,0.2631
222.0,0.2585
221.5,0.2529
221.0,0.2484
220.5,0.2452
220.0,0.2437
219.5,0.2432
219.0,0.2438
218.5,0.2468
218.0,0.2499
217.5,0.2587
217.0,0.2657
216.5,0.2785
216.0,0.2832
215.5,0.2972
215.0,0.3131
214.5,0.3260
214.0,0.3440
213.5,0.3638
213.0,0.3834
212.5,0.4073
212.0,0.4276
211.5,0.4542
211.0,0.4792
210.5,0.5016
210.0,0.5299
209.5,0.5599
209.0,0.5867
208.5,0.6151
208.0,0.6369
207.5,0.6633
207.0,0.6908
206.5,0.7109
206.0,0.7397
205.5,0.7576
205.0,0.7846
204.5,0.7974
204.0,0.8086
203.5,0.8359
203.0,0.8384
202.5,0.8433
202.0,0.8603
201.5,0.8599
201.0,0.8676
200.5,0.8554
200.0,0.8492
