"PAR 2 ug/mL"
"Wavelength nm.","Abs."
400.0,0.0017
399.5,0.0015
399.0,0.0015
398.5,0.0013
398.0,0.0005
397.5,0.0010
397.0,0.0016
396.5,0.0007
396.0,0.0012
395.5,0.0010
395.0,0.0010
394.5,0.0019
394.0,0.0015
393.5,0.0011
393.0,0.0009
392.5,0.0010
392.0,0.0010
391.5,0.0013
391.0,0.0017
390.5,0.0008
390.0,0.0016
389.5,0.0012
389.0,0.0014
388.5,0.0013
388.0,0.0007
387.5,0.0019
387.0,0.0013
386.5,0.0017
386.0,0.0014
385.5,0.0023
385.0,0.0017
384.5,0.0013
384.0,0.0005
383.5,0.0016
383.0,0.0020
382.5,0.0009
382.0,0.0015
381.5,0.0012
381.0,0.0017
380.5,0.0010
380.0,0.0016
379.5,0.0010
379.0,0.0014
378.5,0.0014
378.0,0.0008
377.5,0.0011
377.0,0.0011
376.5,0.0020
376.0,0.0013
375.5,0.0019
375.0,0.0016
374.5,0.0011
374.0,0.0009
373.5,0.0014
373.0,0.0015
372.5,0.0009
372.0,0.0016
371.5,0.0013
371.0,0.0017
370.5,0.0013
370.0,0.0018
369.5,0.0014
369.0,0.0017
368.5,0.0014
368.0,0.0018
367.5,0.0018
367.0,0.0010
366.5,0.0009
366.0,0.0009
365.5,0.0023
365.0,0.0009
364.5,0.0014
364.0,0.0020
363.5,0.0012
363.0,0.0016
362.5,0.0008
362.0,0.0013
361.5,0.0014
361.0,0.0020
360.5,0.0020
360.0,0.0019
359.5,0.0012
359.0,0.0015
358.5,0.0019
358.0,0.0022
357.5,0.0016
357.0,0.0017
356.5,0.0017
356.0,0.0015
355.5,0.0014
355.0,0.0021
354.5,0.0013
354.0,0.0012
353.5,0.0011
353.0,0.0015
352.5,0.0008
352.0,0.0016
351.5,0.0023
351.0,0.0015
350.5,0.0012
350.0,0.0015
349.5,0.0019
349.0,0.0017
348.5,0.0018
348.0,0.0007
347.5,0.0016
347.0,0.0013
346.5,0.0017
346.0,0.0015
345.5,0.0017
345.0,0.0017
344.5,0.0017
344.0,0.0016
343.5,0.0014
343.0,0.0011
342.5,0.0019
342.0,0.0015
341.5,0.0013
341.0,0.0010
340.5,0.0016
340.0,0.0008
339.5,0.0016
339.0,0.0020
338.5,0.0008
338.0,0.0014
337.5,0.0012
337.0,0.0017
336.5,0.0015
336.0,0.0016
335.5,0.0015
335.0,0.0021
334.5,-0.0000
334.0,0.0012
333.5,0.0017
333.0,0.0011
332.5,0.0008
332.0,0.0015
331.5,0.0016
331.0,0.0012
330.5,0.0014
330.0,0.0016
329.5,0.0014
329.0,0.0014
328.5,0.0016
328.0,0.0010
327.5,0.0017
327.0,0.0009
326.5,0.0015
326.0,0.0013
325.5,0.0022
325.0,0.0016
324.5,0.0007
324.0,0.0013
323.5,0.0016
323.0,0.0020
322.5,0.0013
322.0,0.0013
321.5,0.0013
321.0,0.0012
320.5,0.0015
320.0,0.0009
319.5,0.0015
319.0,0.0021
318.5,0.0010
318.0,0.0022
317.5,0.0011
317.0,0.0019
316.5,0.0014
316.0,0.0019
315.5,0.0022
315.0,0.0027
314.5,0.0017
314.0,0.0019
313.5,0.0023
313.0,0.0013
312.5,0.0019
312.0,0.0019
311.5,0.0018
311.0,0.0024
310.5,0.0020
310.0,0.0018
309.5,0.0023
309.0,0.0020
308.5,0.0022
308.0,0.0025
307.5,0.0027
307.0,0.0030
306.5,0.0021
306.0,0.0023
305.5,0.0027
305.0,0.0024
304.5,0.0028
304.0,0.0024
303.5,0.0030
303.0,0.0040
302.5,0.0035
302.0,0.0038
301.5,0.0044
301.0,0.0040
300.5,0.0037
300.0,0.0043
299.5,0.0047
299.0,0.0048
298.5,0.0047
298.0,0.0055
297.5,0.0054
297.0,0.0057
296.5,0.0058
296.0,0.0059
295.5,0.0064
295.0,0.0069
294.5,0.0063
294.0,0.0068
293.5,0.0076
293.0,0.0078
292.5,0.0087
292.0,0.0082
291.5,0.0088
291.0,0.0090
290.5,0.0088
290.0,0.0090
289.5,0.0091
289.0,0.0098
288.5,0.0095
288.0,0.0099
287.5,0.0105
287.0,0.0099
286.5,0.0109
286.0,0.0111
285.5,0.0110
285.0,0.0117
284.5,0.0115
284.0,0.0119
283.5,0.0121
283.0,0.0119
282.5,0.0115
282.0,0.0120
281.5,0.0124
281.0,0.0128
280.5,0.0128
280.0,0.0130
279.5,0.0131
279.0,0.0140
278.5,0.0136
278.0,0.0147
277.5,0.0144
277.0,0.0148
276.5,0.0150
276.0,0.0155
275.5,0.0152
275.0,0.0161
274.5,0.0164
274.0,0.0177
273.5,0.0193
273.0,0.0192
272.5,0.0202
272.0,0.0202
271.5,0.0213
271.0,0.0227
270.5,0.0243
270.0,0.0258
269.5,0.0263
269.0,0.0286
268.5,0.0292
268.0,0.0306
267.5,0.0322
267.0,0.0339
266.5,0.0349
266.0,0.0371
265.5,0.0405
265.0,0.0414
264.5,0.0432
264.0,0.0459
263.5,0.0491
263.0,0.0509
262.5,0.0517
262.0,0.0547
261.5,0.0585
261.0,0.0616
260.5,0.0633
260.0,0.0655
259.5,0.0680
259.0,0.0721
258.5,0.0733
258.0,0.0766
257.5,0.0810
257.0,0.0820
256.5,0.0848
256.0,0.0888
255.5,0.0912
255.0,0.0943
254.5,0.0971
254.0,0.0998
253.5,0.1021
253.0,0.1054
252.5,0.1082
252.0,0.1109
251.5,0.1126
251.0,0.1150
250.5,0.1173
250.0,0.1194
249.5,0.1216
249.0,0.1234
248.5,0.1236
248.0,0.1263
247.5,0.1289
247.0,0.1283
246.5,0.1327
246.0,0.1334
245.5,0.1335
245.0,0.1337
244.5,0.1344
244.0,0.1358
243.5,0.1354
243.0,0.1350
242.5,0.1358
242.0,0.1356
241.5,0.1341
241.0,0.1344
240.5,0.1328
240.0,0.1325
239.5,0.1312
239.0,0.1305
238.5,0.1274
238.0,0.1281
237.5,0.1258
237.0,0.1235
236.5,0.1222
236.0,0.1191
235.5,0.1180
235.0,0.1147
234.5,0.1132
234.0,0.1100
233.5,0.1073
233.0,0.1060
232.5,0.1025
232.0,0.1017
231.5,0.0974
231.0,0.0944
230.5,0.0912
230.0,0.0882
229.5,0.0863
229.0,0.0824
228.5,0.0818
228.0,0.0784
227.5,0.0754
227.0,0.0723
226.5,0.0712
226.0,0.0685
225.5,0.0658
225.0,0.0624
224.5,0.0615
224.0,0.0592
223.5,0.0566
223.0,0.0567
222.5,0.0541
222.0,0.0537
221.5,0.0524
221.0,0.0511
220.5,0.0504
220.0,0.0496
219.5,0.0497
219.0,0.0496
218.5,0.0501
218.0,0.0512
217.5,0.0534
217.0,0.0544
216.5,0.0569
216.0,0.0588
215.5,0.0610
215.0,0.0626
214.5,0.0656
214.0,0.0716
213.5,0.0748
213.0,0.0788
212.5,0.0820
212.0,0.0865
211.5,0.0916
211.0,0.0962
210.5,0.1004
210.0,0.1075
209.5,0.1105
209.0,0.1176
208.5,0.1270
208.0,0.1241
207.5,0.1305
207.0,0.1381
206.5,0.1453
206.0,0.1492
205.5,0.1517
205.0,0.1608
204.5,0.1547
204.0,0.1609
203.5,0.1656
203.0,0.1692
202.5,0.1710
202.0,0.1745
201.5,0.1670
201.0,0.1700
200.5,0.1787
200.0,0.1681
