"PAR 4 ug/mL"
"Wavelength nm.","Abs."
400.0,0.0009
399.5,-0.0003
399.0,0.0001
398.5,-0.0003
398.0,0.0004
397.5,-0.0003
397.0,-0.0001
396.5,0.0008
396.0,0.0010
395.5,0.0003
395.0,0.0004
394.5,0.0010
394.0,0.0002
393.5,-0.0005
393.0,0.0005
392.5,0.0008
392.0,0.0006
391.5,0.0006
391.0,0.0004
390.5,-0.0005
390.0,0.0010
389.5,0.0003
389.0,-0.0004
388.5,0.0007
388.0,-0.0001
387.5,0.0009
387.0,-0.0002
386.5,0.0001
386.0,0.0003
385.5,-0.0003
385.0,-0.0001
384.5,0.0004
384.0,0.0008
383.5,0.0010
383.0,-0.0001
382.5,0.0002
382.0,0.0003
381.5,-0.0002
381.0,0.0002
380.5,-0.0000
380.0,-0.0001
379.5,0.0006
379.0,0.0005
378.5,-0.0000
378.0,0.0003
377.5,-0.0001
377.0,0.0004
376.5,0.0004
376.0,0.0003
375.5,0.0007
375.0,-0.0001
374.5,0.0004
374.0,0.0005
373.5,0.0002
373.0,0.0001
372.5,0.0004
372.0,-0.0001
371.5,0.0000
371.0,0.0004
370.5,0.0007
370.0,0.0004
369.5,0.0007
369.0,0.0007
368.5,0.0001
368.0,0.0005
367.5,0.0007
367.0,-0.0005
366.5,-0.0000
366.0,-0.0000
365.5,0.0003
365.0,0.0003
364.5,0.0000
364.0,-0.0003
363.5,-0.0005
363.0,0.0007
362.5,0.0000
362.0,0.0006
361.5,0.0000
361.0,0.0005
360.5,0.0002
360.0,0.0003
359.5,-0.0003
359.0,0.0000
358.5,0.0012
358.0,-0.0002
357.5,0.0001
357.0,0.0000
356.5,0.0003
356.0,0.0003
355.5,0.0002
355.0,0.0002
354.5,0.0007
354.0,0.0001
353.5,-0.0007
353.0,-0.0001
352.5,-0.0009
352.0,-0.0000
351.5,0.0001
351.0,0.0006
350.5,0.0002
350.0,0.0006
349.5,0.0005
349.0,-0.0003
348.5,0.0003
348.0,-0.0003
347.5,-0.0001
347.0,0.0004
346.5,0.0002
346.0,0.0001
345.5,0.0006
345.0,0.0003
344.5,0.0005
344.0,0.0006
343.5,0.0000
343.0,0.0009
342.5,-0.0001
342.0,0.0001
341.5,0.0008
341.0,0.0000
340.5,0.0002
340.0,-0.0005
339.5,0.0000
339.0,0.0005
338.5,0.0004
338.0,0.0005
337.5,0.0005
337.0,0.0003
336.5,0.0005
336.0,-0.0001
335.5,0.0002
335.0,0.0003
334.5,0.0001
334.0,-0.0005
333.5,0.0007
333.0,-0.0005
332.5,0.0004
332.0,0.0003
331.5,-0.0002
331.0,0.0003
330.5,0.0008
330.0,0.0006
329.5,0.0002
329.0,0.0003
328.5,0.0001
328.0,0.0007
327.5,-0.0006
327.0,0.0002
326.5,-0.0002
326.0,-0.0001
325.5,-0.0001
325.0,-0.0005
324.5,-0.0004
324.0,0.0004
323.5,0.0002
323.0,0.0002
322.5,0.0002
322.0,0.0009
321.5,-0.0003
321.0,0.0006
320.5,-0.0000
320.0,0.0006
319.5,0.0001
319.0,0.0002
318.5,0.0011
318.0,0.0001
317.5,0.0008
317.0,0.0006
316.5,-0.0000
316.0,0.0004
315.5,0.0004
315.0,-0.0006
314.5,0.0008
314.0,0.0006
313.5,0.0004
313.0,0.0009
312.5,0.0004
312.0,0.0006
311.5,0.0008
311.0,0.0003
310.5,0.0002
310.0,0.0003
309.5,0.0010
309.0,0.0011
308.5,0.0010
308.0,0.0007
307.5,0.0015
307.0,0.0017
306.5,0.0021
306.0,0.0026
305.5,0.0020
305.0,0.0022
304.5,0.0027
304.0,0.0031
303.5,0.0034
303.0,0.0034
302.5,0.0033
302.0,0.0041
301.5,0.0048
301.0,0.0051
300.5,0.0050
300.0,0.0050
299.5,0.0061
299.0,0.0062
298.5,0.0069
298.0,0.0067
297.5,0.0076
297.0,0.0077
296.5,0.0087
296.0,0.0090
295.5,0.0089
295.0,0.0101
294.5,0.0105
294.0,0.0108
293.5,0.0121
293.0,0.0122
292.5,0.0133
292.0,0.0132
291.5,0.0142
291.0,0.0143
290.5,0.0148
290.0,0.0155
289.5,0.0160
289.0,0.0162
288.5,0.0159
288.0,0.0176
287.5,0.0176
287.0,0.0183
286.5,0.0189
286.0,0.0187
285.5,0.0189
285.0,0.0199
284.5,0.0184
284.0,0.0190
283.5,0.0194
283.0,0.0202
282.5,0.0208
282.0,0.0214
281.5,0.0212
281.0,0.0217
280.5,0.0227
280.0,0.0231
279.5,0.0223
279.0,0.0236
278.5,0.0235
278.0,0.0257
277.5,0.0255
277.0,0.0249
276.5,0.0263
276.0,0.0274
275.5,0.0283
275.0,0.0292
274.5,0.0308
274.0,0.0321
273.5,0.0333
273.0,0.0359
272.5,0.0370
272.0,0.0383
271.5,0.0402
271.0,0.0430
270.5,0.0452
270.0,0.0466
269.5,0.0500
269.0,0.0528
268.5,0.0547
268.0,0.0581
267.5,0.0612
267.0,0.0648
266.5,0.0688
266.0,0.0726
265.5,0.0752
265.0,0.0798
264.5,0.0847
264.0,0.0878
263.5,0.0939
263.0,0.0975
262.5,0.1028
262.0,0.1073
261.5,0.1129
261.0,0.1164
260.5,0.1237
260.0,0.1282
259.5,0.1347
259.0,0.1391
258.5,0.1454
258.0,0.1526
257.5,0.1565
257.0,0.1618
256.5,0.1698
256.0,0.1749
255.5,0.1800
255.0,0.1870
254.5,0.1909
254.0,0.1968
253.5,0.2016
253.0,0.2068
252.5,0.2112
252.0,0.2185
251.5,0.2213
251.0,0.2272
250.5,0.2314
250.0,0.2358
249.5,0.2417
249.0,0.2451
248.5,0.2482
248.0,0.2519
247.5,0.2554
247.0,0.2581
246.5,0.2587
246.0,0.2624
245.5,0.2633
245.0,0.2641
244.5,0.2658
244.0,0.2661
243.5,0.2689
243.0,0.2674
242.5,0.2669
242.0,0.2665
241.5,0.2660
241.0,0.2641
240.5,0.2657
240.0,0.2629
239.5,0.2590
239.0,0.2570
238.5,0.2543
238.0,0.2512
237.5,0.2487
237.0,0.2442
236.5,0.2397
236.0,0.2356
235.5,0.2329
235.0,0.2287
234.5,0.2220
234.0,0.2179
233.5,0.2129
233.0,0.2076
232.5,0.2014
232.0,0.1974
231.5,0.1916
231.0,0.1858
230.5,0.1801
230.0,0.1738
229.5,0.1700
229.0,0.1641
228.5,0.1570
228.0,0.1522
227.5,0.1470
227.0,0.1432
226.5,0.1377
226.0,0.1325
225.5,0.1276
225.0,0.1221
224.5,0.1201
224.0,0.1162
223.5,0.1117
223.0,0.1077
222.5,0.1042
222.0,0.1031
221.5,0.0994
221.0,0.1010
220.5,0.0980
220.0,0.0981
219.5,0.0970
219.0,0.0969
218.5,0.0992
218.0,0.1000
217.5,0.1027
217.0,0.1049
216.5,0.1092
216.0,0.1124
215.5,0.1179
215.0,0.1241
214.5,0.1289
214.0,0.1363
213.5,0.1446
213.0,0.1537
212.5,0.1610
212.0,0.1704
211.5,0.1790
211.0,0.1898
210.5,0.1974
210.0,0.2077
209.5,0.2213
209.0,0.2310
208.5,0.2409
208.0,0.2533
207.5,0.2669
207.0,0.2770
206.5,0.2863
206.0,0.2954
205.5,0.3039
205.0,0.3061
204.5,0.3226
204.0,0.3206
203.5,0.3311
203.0,0.3360
202.5,0.3404
202.0,0.3335
201.5,0.3375
201.0,0.3304
200.5,0.3447
200.0,0.3421
