"PAR 12 ug/mL"
"Wavelength nm.","Abs."
400.0,0.0007
399.5,0.0005
399.0,0.0004
398.5,0.0005
398.0,0.0015
397.5,0.0007
397.0,0.0004
396.5,0.0001
396.0,0.0005
395.5,0.0004
395.0,0.0009
394.5,0.0002
394.0,-0.0004
393.5,0.0002
393.0,0.0008
392.5,0.0004
392.0,0.0007
391.5,0.0003
391.0,0.0006
390.5,0.0006
390.0,0.0011
389.5,0.0013
389.0,0.0004
388.5,0.0011
388.0,-0.0004
387.5,0.0009
387.0,0.0006
386.5,0.0006
386.0,0.0005
385.5,0.0006
385.0,0.0008
384.5,0.0007
384.0,0.0002
383.5,0.0005
383.0,0.0003
382.5,0.0002
382.0,0.0005
381.5,0.0006
381.0,0.0004
380.5,0.0010
380.0,0.0005
379.5,0.0011
379.0,0.0006
378.5,-0.0003
378.0,0.0003
377.5,0.0005
377.0,0.0006
376.5,0.0000
376.0,0.0003
375.5,0.0013
375.0,0.0003
374.5,0.0003
374.0,0.0004
373.5,0.0002
373.0,0.0010
372.5,0.0004
372.0,0.0000
371.5,0.0002
371.0,0.0004
370.5,-0.0001
370.0,0.0008
369.5,0.0001
369.0,0.0008
368.5,0.0007
368.0,0.0002
367.5,0.0004
367.0,0.0011
366.5,0.0005
366.0,0.0007
365.5,0.0008
365.0,0.0005
364.5,0.0001
364.0,0.0007
363.5,0.0010
363.0,0.0007
362.5,0.0009
362.0,0.0003
361.5,0.0003
361.0,-0.0001
360.5,0.0003
360.0,0.0006
359.5,0.0001
359.0,-0.0001
358.5,0.0006
358.0,0.0007
357.5,0.0007
357.0,0.0001
356.5,-0.0001
356.0,-0.0005
355.5,0.0005
355.0,0.0006
354.5,-0.0004
354.0,-0.0003
353.5,0.0001
353.0,0.0003
352.5,0.0005
352.0,0.0005
351.5,-0.0004
351.0,0.0006
350.5,0.0008
350.0,-0.0000
349.5,0.0002
349.0,-0.0003
348.5,0.0004
348.0,-0.0002
347.5,0.0002
347.0,0.0005
346.5,0.0006
346.0,0.0003
345.5,0.0005
345.0,0.0006
344.5,0.0006
344.0,-0.0000
343.5,0.0009
343.0,0.0002
342.5,0.0001
342.0,0.0005
341.5,0.0009
341.0,-0.0001
340.5,0.0009
340.0,0.0002
339.5,-0.0004
339.0,-0.0000
338.5,0.0002
338.0,0.0004
337.5,0.0005
337.0,0.0011
336.5,0.0007
336.0,-0.0001
335.5,0.0004
335.0,0.0002
334.5,0.0005
334.0,-0.0001
333.5,0.0002
333.0,0.0000
332.5,-0.0002
332.0,-0.0002
331.5,0.0014
331.0,0.0003
330.5,0.0002
330.0,0.0008
329.5,0.0003
329.0,0.0006
328.5,0.0008
328.0,0.0005
327.5,0.0012
327.0,0.0003
326.5,-0.0001
326.0,0.0000
325.5,0.0005
325.0,-0.0001
324.5,0.0003
324.0,0.0006
323.5,0.0001
323.0,0.0007
322.5,0.0008
322.0,0.0004
321.5,0.0009
321.0,0.0008
320.5,0.0005
320.0,-0.0000
319.5,0.0006
319.0,0.0003
318.5,0.0002
318.0,0.0009
317.5,0.0006
317.0,0.0006
316.5,0.0004
316.0,0.0003
315.5,0.0005
315.0,0.0009
314.5,0.0010
314.0,0.0008
313.5,0.0009
313.0,0.0010
312.5,0.0015
312.0,0.0016
311.5,0.0014
311.0,0.0014
310.5,0.0025
310.0,0.0019
309.5,0.0022
309.0,0.0042
308.5,0.0031
308.0,0.0034
307.5,0.0045
307.0,0.0047
306.5,0.0048
306.0,0.0054
305.5,0.0066
305.0,0.0065
304.5,0.0082
304.0,0.0086
303.5,0.0095
303.0,0.0103
302.5,0.0107
302.0,0.0120
301.5,0.0126
301.0,0.0139
300.5,0.0155
300.0,0.0154
299.5,0.0170
299.0,0.0190
298.5,0.0198
298.0,0.0211
297.5,0.0230
297.0,0.0244
296.5,0.0245
296.0,0.0273
295.5,0.0284
295.0,0.0293
294.5,0.0315
294.0,0.0325
293.5,0.0347
293.0,0.0361
292.5,0.0380
292.0,0.0392
291.5,0.0408
291.0,0.0424
290.5,0.0436
290.0,0.0455
289.5,0.0460
289.0,0.0491
288.5,0.0502
288.0,0.0507
287.5,0.0521
287.0,0.0528
286.5,0.0536
286.0,0.0551
285.5,0.0564
285.0,0.0561
284.5,0.0584
284.0,0.0588
283.5,0.0602
283.0,0.0608
282.5,0.0621
282.0,0.0628
281.5,0.0628
281.0,0.0648
280.5,0.0654
280.0,0.0670
279.5,0.0678
279.0,0.0706
278.5,0.0713
278.0,0.0734
277.5,0.0745
277.0,0.0764
276.5,0.0796
276.0,0.0826
275.5,0.0848
275.0,0.0876
274.5,0.0913
274.0,0.0948
273.5,0.0998
273.0,0.1046
272.5,0.1104
272.0,0.1146
271.5,0.1196
271.0,0.1269
270.5,0.1335
270.0,0.1408
269.5,0.1471
269.0,0.1553
268.5,0.1648
268.0,0.1733
267.5,0.1824
267.0,0.1929
266.5,0.2036
266.0,0.2152
265.5,0.2262
265.0,0.2387
264.5,0.2509
264.0,0.2656
263.5,0.2781
263.0,0.2914
262.5,0.3072
262.0,0.3214
261.5,0.3363
261.0,0.3514
260.5,0.3674
260.0,0.3837
259.5,0.3997
259.0,0.4163
258.5,0.4355
258.0,0.4512
257.5,0.4669
257.0,0.4860
256.5,0.5004
256.0,0.5186
255.5,0.5344
255.0,0.5559
254.5,0.5698
254.0,0.5857
253.5,0.5998
253.0,0.6182
252.5,0.6361
252.0,0.6489
251.5,0.6646
251.0,0.6795
250.5,0.6901
250.0,0.7067
249.5,0.7204
249.0,0.7285
248.5,0.7403
248.0,0.7492
247.5,0.7572
247.0,0.7669
246.5,0.7736
246.0,0.7858
245.5,0.7862
245.0,0.7913
244.5,0.7939
244.0,0.7992
243.5,0.7957
243.0,0.7980
242.5,0.7975
242.0,0.7979
241.5,0.7953
241.0,0.7919
240.5,0.7855
240.0,0.7822
239.5,0.7771
239.0,0.7648
238.5,0.7602
238.0,0.7533
237.5,0.7451
237.0,0.7300
236.5,0.7179
236.0,0.7067
235.5,0.6935
235.0,0.6792
234.5,0.6690
234.0,0.6538
233.5,0.6384
233.0,0.6217
232.5,0.6056
232.0,0.5866
231.5,0.5736
231.0,0.5563
230.5,0.5391
230.0,0.5197
229.5,0.5060
229.0,0.4921
228.5,0.4745
228.0,0.4579
227.5,0.4421
227.0,0.4241
226.5,0.4116
226.0,0.3949
225.5,0.3836
225.0,0.3705
224.5,0.3567
224.0,0.3452
223.5,0.3344
223.0,0.3244
222.5,0.3133
222.0,0.3084
221.5,0.3002
221.0,0.2967
220.5,0.2920
220.0,0.2915
219.5,0.2924
219.0,0.2906
218.5,0.2965
218.0,0.2994
217.5,0.3063
217.0,0.3134
216.5,0.3295
216.0,0.3380
215.5,0.3538
215.0,0.3712
214.5,0.3864
214.0,0.4114
213.5,0.4305
213.0,0.4559
212.5,0.4844
212.0,0.5087
211.5,0.5373
211.0,0.5647
210.5,0.5986
210.0,0.6281
209.5,0.6632
209.0,0.6918
208.5,0.7266
208.0,0.7521
207.5,0.7851
207.0,0.8226
206.5,0.8547
206.0,0.8781
205.5,0.9056
205.0,0.9275
204.5,0.9601
204.0,0.9682
203.5,0.9869
203.0,0.9938
202.5,1.0199
202.0,1.0202
201.5,1.0141
201.0,1.0329
200.5,1.0342
200.0,1.0021
