"PAR 20 ug/mL"
"Wavelength nm.","Abs."
400.0,-0.0022
399.5,-0.0023
399.0,-0.0028
398.5,-0.0025
398.0,-0.0020
397.5,-0.0022
397.0,-0.0029
396.5,-0.0026
396.0,-0.0028
395.5,-0.0026
395.0,-0.0022
394.5,-0.0018
394.0,-0.0033
393.5,-0.0023
393.0,-0.0022
392.5,-0.0027
392.0,-0.0032
391.5,-0.0025
391.0,-0.0026
390.5,-0.0024
390.0,-0.0030
389.5,-0.0022
389.0,-0.0022
388.5,-0.0025
388.0,-0.0016
387.5,-0.0024
387.0,-0.0020
386.5,-0.0020
386.0,-0.0024
385.5,-0.0023
385.0,-0.0022
384.5,-0.0024
384.0,-0.0023
383.5,-0.0020
383.0,-0.0022
382.5,-0.0019
382.0,-0.0022
381.5,-0.0024
381.0,-0.0025
380.5,-0.0028
380.0,-0.0025
379.5,-0.0021
379.0,-0.0028
378.5,-0.0025
378.0,-0.0023
377.5,-0.0021
377.0,-0.0023
376.5,-0.0037
376.0,-0.0021
375.5,-0.0028
375.0,-0.0023
374.5,-0.0030
374.0,-0.0024
373.5,-0.0027
373.0,-0.0025
372.5,-0.0025
372.0,-0.0021
371.5,-0.0025
371.0,-0.0026
370.5,-0.0014
370.0,-0.0023
369.5,-0.0023
369.0,-0.0022
368.5,-0.0024
368.0,-0.0026
367.5,-0.0032
367.0,-0.0021
366.5,-0.0022
366.0,-0.0026
365.5,-0.0020
365.0,-0.0021
364.5,-0.0021
364.0,-0.0021
363.5,-0.0020
363.0,-0.0027
362.5,-0.0018
362.0,-0.0020
361.5,-0.0021
361.0,-0.0024
360.5,-0.0021
360.0,-0.0026
359.5,-0.0024
359.0,-0.0035
358.5,-0.0030
358.0,-0.0034
357.5,-0.0023
357.0,-0.0031
356.5,-0.0029
356.0,-0.0018
355.5,-0.0023
355.0,-0.0020
354.5,-0.0021
354.0,-0.0021
353.5,-0.0021
353.0,-0.0023
352.5,-0.0016
352.0,-0.0025
351.5,-0.0026
351.0,-0.0026
350.5,-0.0029
350.0,-0.0021
349.5,-0.0037
349.0,-0.0024
348.5,-0.0024
348.0,-0.0016
347.5,-0.0030
347.0,-0.0030
346.5,-0.0024
346.0,-0.0021
345.5,-0.0024
345.0,-0.0028
344.5,-0.0023
344.0,-0.0023
343.5,-0.0025
343.0,-0.0016
342.5,-0.0024
342.0,-0.0025
341.5,-0.0022
341.0,-0.0026
340.5,-0.0021
340.0,-0.0019
339.5,-0.0025
339.0,-0.0022
338.5,-0.0019
338.0,-0.0022
337.5,-0.0021
337.0,-0.0016
336.5,-0.0029
336.0,-0.0026
335.5,-0.0031
335.0,-0.0025
334.5,-0.0022
334.0,-0.0017
333.5,-0.0024
333.0,-0.0029
332.5,-0.0021
332.0,-0.0015
331.5,-0.0018
331.0,-0.0023
330.5,-0.0018
330.0,-0.0025
329.5,-0.0031
329.0,-0.0020
328.5,-0.0025
328.0,-0.0025
327.5,-0.0021
327.0,-0.0019
326.5,-0.0026
326.0,-0.0016
325.5,-0.0022
325.0,-0.0021
324.5,-0.0025
324.0,-0.0025
323.5,-0.0032
323.0,-0.0025
322.5,-0.0019
322.0,-0.0023
321.5,-0.0023
321.0,-0.0022
320.5,-0.0022
320.0,-0.0024
319.5,-0.0022
319.0,-0.0024
318.5,-0.0014
318.0,-0.0018
317.5,-0.0007
317.0,-0.0018
316.5,-0.0020
316.0,-0.0013
315.5,-0.0019
315.0,-0.0014
314.5,-0.0015
314.0,-0.0004
313.5,-0.0016
313.0,-0.0001
312.5,-0.0004
312.0,0.0004
311.5,-0.0005
311.0,-0.0002
310.5,0.0011
310.0,0.0017
309.5,0.0015
309.0,0.0022
308.5,0.0027
308.0,0.0036
307.5,0.0045
307.0,0.0050
306.5,0.0065
306.0,0.0070
305.5,0.0081
305.0,0.0085
304.5,0.0092
304.0,0.0104
303.5,0.0117
303.0,0.0133
302.5,0.0152
302.0,0.0166
301.5,0.0189
301.0,0.0203
300.5,0.0219
300.0,0.0238
299.5,0.0259
299.0,0.0284
298.5,0.0298
298.0,0.0336
297.5,0.0346
297.0,0.0377
296.5,0.0399
296.0,0.0424
295.5,0.0452
295.0,0.0475
294.5,0.0501
294.0,0.0519
293.5,0.0548
293.0,0.0581
292.5,0.0606
292.0,0.0637
291.5,0.0658
291.0,0.0670
290.5,0.0708
290.0,0.0727
289.5,0.0748
289.0,0.0779
288.5,0.0798
288.0,0.0830
287.5,0.0837
287.0,0.0848
286.5,0.0881
286.0,0.0896
285.5,0.0897
285.0,0.0915
284.5,0.0939
284.0,0.0956
283.5,0.0970
283.0,0.0983
282.5,0.0999
282.0,0.1020
281.5,0.1034
281.0,0.1053
280.5,0.1071
280.0,0.1080
279.5,0.1116
279.0,0.1130
278.5,0.1160
278.0,0.1183
277.5,0.1221
277.0,0.1251
276.5,0.1283
276.0,0.1330
275.5,0.1376
275.0,0.1439
274.5,0.1497
274.0,0.1555
273.5,0.1630
273.0,0.1710
272.5,0.1793
272.0,0.1875
271.5,0.1962
271.0,0.2067
270.5,0.2169
270.0,0.2304
269.5,0.2441
269.0,0.2559
268.5,0.2718
268.0,0.2870
267.5,0.3030
267.0,0.3212
266.5,0.3366
266.0,0.3541
265.5,0.3752
265.0,0.3957
264.5,0.4179
264.0,0.4382
263.5,0.4612
263.0,0.4862
262.5,0.5072
262.0,0.5304
261.5,0.5561
261.0,0.5838
260.5,0.6084
260.0,0.6336
259.5,0.6623
259.0,0.6928
258.5,0.7208
258.0,0.7490
257.5,0.7805
257.0,0.8070
256.5,0.8365
256.0,0.8661
255.5,0.8936
255.0,0.9211
254.5,0.9479
254.0,0.9726
253.5,1.0014
253.0,1.0289
252.5,1.0554
252.0,1.0825
251.5,1.1089
251.0,1.1311
250.5,1.1496
250.0,1.1727
249.5,1.1925
249.0,1.2166
248.5,1.2290
248.0,1.2483
247.5,1.2601
247.0,1.2804
246.5,1.2909
246.0,1.3016
245.5,1.3097
245.0,1.3143
244.5,1.3258
244.0,1.3258
243.5,1.3326
243.0,1.3254
242.5,1.3334
242.0,1.3297
241.5,1.3253
241.0,1.3215
240.5,1.3100
240.0,1.2987
239.5,1.2916
239.0,1.2841
238.5,1.2706
238.0,1.2491
237.5,1.2384
237.0,1.2136
236.5,1.2000
236.0,1.1802
235.5,1.1562
235.0,1.1353
234.5,1.1094
234.0,1.0859
233.5,1.0600
233.0,1.0372
232.5,1.0095
232.0,0.9851
231.5,0.9568
231.0,0.9295
230.5,0.8981
230.0,0.8733
229.5,0.8451
229.0,0.8172
228.5,0.7895
228.0,0.7646
227.5,0.7357
227.0,0.7108
226.5,0.6810
226.0,0.6614
225.5,0.6391
225.0,0.6117
224.5,0.5977
224.0,0.5755
223.5,0.5549
223.0,0.5373
222.5,0.5253
222.0,0.5124
221.5,0.5013
221.0,0.4924
220.5,0.4881
220.0,0.4845
219.5,0.4829
219.0,0.4838
218.5,0.4872
218.0,0.4959
217.5,0.5089
217.0,0.5253
216.5,0.5419
216.0,0.5613
215.5,0.5866
215.0,0.6103
214.5,0.6438
214.0,0.6793
213.5,0.7166
213.0,0.7557
212.5,0.7992
212.0,0.8459
211.5,0.8903
211.0,0.9404
210.5,0.9967
210.0,1.0520
209.5,1.0958
209.0,1.1558
208.5,1.2037
208.0,1.2658
207.5,1.3149
207.0,1.3626
206.5,1.4141
206.0,1.4634
205.5,1.5086
205.0,1.5432
204.5,1.5788
204.0,1.6284
203.5,1.6335
203.0,1.6734
202.5,1.6884
202.0,1.6978
201.5,1.7035
201.0,1.7085
200.5,1.7184
200.0,1.6960
