"PAR 15 ug/mL"
"Wavelength nm.","Abs."
400.0,-0.0016
399.5,-0.0017
399.0,-0.0022
398.5,-0.0008
398.0,-0.0017
397.5,-0.0019
397.0,-0.0019
396.5,-0.0025
396.0,-0.0013
395.5,-0.0013
395.0,-0.0010
394.5,-0.0016
394.0,-0.0016
393.5,-0.0013
393.0,-0.0023
392.5,-0.0015
392.0,-0.0015
391.5,-0.0019
391.0,-0.0021
390.5,-0.0006
390.0,-0.0024
389.5,-0.0016
389.0,-0.0011
388.5,-0.0017
388.0,-0.0015
387.5,-0.0012
387.0,-0.0014
386.5,-0.0016
386.0,-0.0009
385.5,-0.0018
385.0,-0.0017
384.5,-0.0010
384.0,-0.0017
383.5,-0.0012
383.0,-0.0021
382.5,-0.0024
382.0,-0.0017
381.5,-0.0014
381.0,-0.0011
380.5,-0.0021
380.0,-0.0020
379.5,-0.0011
379.0,-0.0022
378.5,-0.0016
378.0,-0.0016
377.5,-0.0011
377.0,-0.0019
376.5,-0.0015
376.0,-0.0015
375.5,-0.0020
375.0,-0.0016
374.5,-0.0015
374.0,-0.0019
373.5,-0.0014
373.0,-0.0014
372.5,-0.0016
372.0,-0.0024
371.5,-0.0011
371.0,-0.0015
370.5,-0.0014
370.0,-0.0015
369.5,-0.0016
369.0,-0.0015
368.5,-0.0018
368.0,-0.0014
367.5,-0.0019
367.0,-0.0021
366.5,-0.0015
366.0,-0.0024
365.5,-0.0017
365.0,-0.0011
364.5,-0.0017
364.0,-0.0015
363.5,-0.0013
363.0,-0.0017
362.5,-0.0013
362.0,-0.0012
361.5,-0.0019
361.0,-0.0017
360.5,-0.0013
360.0,-0.0016
359.5,-0.0021
359.0,-0.0017
358.5,-0.0016
358.0,-0.0020
357.5,-0.0020
357.0,-0.0015
356.5,-0.0020
356.0,-0.0016
355.5,-0.0021
355.0,-0.0018
354.5,-0.0016
354.0,-0.0016
353.5,-0.0011
353.0,-0.0023
352.5,-0.0015
352.0,-0.0011
351.5,-0.0014
351.0,-0.0012
350.5,-0.0018
350.0,-0.0014
349.5,-0.0017
349.0,-0.0015
348.5,-0.0015
348.0,-0.0018
347.5,-0.0013
347.0,-0.0015
346.5,-0.0016
346.0,-0.0019
345.5,-0.0021
345.0,-0.0025
344.5,-0.0015
344.0,-0.0015
343.5,-0.0022
343.0,-0.0024
342.5,-0.0017
342.0,-0.0020
341.5,-0.0017
341.0,-0.0017
340.5,-0.0017
340.0,-0.0021
339.5,-0.0011
339.0,-0.0016
338.5,-0.0015
338.0,-0.0013
337.5,-0.0018
337.0,-0.0010
336.5,-0.0021
336.0,-0.0024
335.5,-0.0011
335.0,-0.0009
334.5,-0.0014
334.0,-0.0009
333.5,-0.0018
333.0,-0.0019
332.5,-0.0019
332.0,-0.0020
331.5,-0.0011
331.0,-0.0017
330.5,-0.0024
330.0,-0.0013
329.5,-0.0016
329.0,-0.0018
328.5,-0.0019
328.0,-0.0013
327.5,-0.0020
327.0,-0.0021
326.5,-0.0019
326.0,-0.0020
325.5,-0.0015
325.0,-0.0012
324.5,-0.0018
324.0,-0.0018
323.5,-0.0018
323.0,-0.0015
322.5,-0.0019
322.0,-0.0021
321.5,-0.0011
321.0,-0.0012
320.5,-0.0011
320.0,-0.0013
319.5,-0.0018
319.0,-0.0012
318.5,-0.0012
318.0,-0.0015
317.5,-0.0016
317.0,-0.0010
316.5,-0.0017
316.0,-0.0014
315.5,-0.0010
315.0,-0.0005
314.5,-0.0004
314.0,-0.0004
313.5,-0.0012
313.0,-0.0000
312.5,0.0004
312.0,0.0001
311.5,0.0008
311.0,-0.0003
310.5,0.0012
310.0,0.0006
309.5,0.0012
309.0,0.0019
308.5,0.0024
308.0,0.0033
307.5,0.0029
307.0,0.0036
306.5,0.0038
306.0,0.0047
305.5,0.0056
305.0,0.0071
304.5,0.0082
304.0,0.0085
303.5,0.0095
303.0,0.0101
302.5,0.0108
302.0,0.0130
301.5,0.0146
301.0,0.0145
300.5,0.0172
300.0,0.0188
299.5,0.0194
299.0,0.0216
298.5,0.0231
298.0,0.0248
297.5,0.0262
297.0,0.0283
296.5,0.0305
296.0,0.0316
295.5,0.0342
295.0,0.0355
294.5,0.0383
294.0,0.0397
293.5,0.0416
293.0,0.0443
292.5,0.0457
292.0,0.0482
291.5,0.0494
291.0,0.0519
290.5,0.0528
290.0,0.0548
289.5,0.0565
289.0,0.0577
288.5,0.0606
288.0,0.0621
287.5,0.0636
287.0,0.0646
286.5,0.0667
286.0,0.0671
285.5,0.0689
285.0,0.0699
284.5,0.0700
284.0,0.0726
283.5,0.0726
283.0,0.0747
282.5,0.0754
282.0,0.0777
281.5,0.0782
281.0,0.0800
280.5,0.0804
280.0,0.0810
279.5,0.0837
279.0,0.0864
278.5,0.0876
278.0,0.0901
277.5,0.0923
277.0,0.0950
276.5,0.0989
276.0,0.1007
275.5,0.1043
275.0,0.1077
274.5,0.1130
274.0,0.1187
273.5,0.1234
273.0,0.1287
272.5,0.1352
272.0,0.1405
271.5,0.1493
271.0,0.1569
270.5,0.1639
270.0,0.1748
269.5,0.1837
269.0,0.1954
268.5,0.2048
268.0,0.2173
267.5,0.2287
267.0,0.2409
266.5,0.2543
266.0,0.2688
265.5,0.2834
265.0,0.2987
264.5,0.3127
264.0,0.3318
263.5,0.3493
263.0,0.3674
262.5,0.3829
262.0,0.4028
261.5,0.4229
261.0,0.4424
260.5,0.4619
260.0,0.4824
259.5,0.5052
259.0,0.5253
258.5,0.5435
258.0,0.5657
257.5,0.5866
257.0,0.6095
256.5,0.6336
256.0,0.6555
255.5,0.6760
255.0,0.6959
254.5,0.7166
254.0,0.7337
253.5,0.7576
253.0,0.7815
252.5,0.7975
252.0,0.8181
251.5,0.8375
251.0,0.8568
250.5,0.8708
250.0,0.8866
249.5,0.9016
249.0,0.9187
248.5,0.9302
248.0,0.9414
247.5,0.9530
247.0,0.9669
246.5,0.9742
246.0,0.9860
245.5,0.9892
245.0,0.9983
244.5,0.9995
244.0,0.9997
243.5,1.0039
243.0,1.0051
242.5,1.0070
242.0,1.0059
241.5,0.9997
241.0,0.9984
240.5,0.9883
240.0,0.9854
239.5,0.9795
239.0,0.9696
238.5,0.9555
238.0,0.9421
237.5,0.9327
237.0,0.9165
236.5,0.9048
236.0,0.8883
235.5,0.8720
235.0,0.8603
234.5,0.8417
234.0,0.8225
233.5,0.8008
233.0,0.7819
232.5,0.7631
232.0,0.7409
231.5,0.7187
231.0,0.6965
230.5,0.6815
230.0,0.6638
229.5,0.6403
229.0,0.6154
228.5,0.5959
228.0,0.5756
227.5,0.5558
227.0,0.5375
226.5,0.5160
226.0,0.5040
225.5,0.4828
225.0,0.4668
224.5,0.4484
224.0,0.4359
223.5,0.4203
223.0,0.4068
222.5,0.3977
222.0,0.3857
221.5,0.3809
221.0,0.3704
220.5,0.3672
220.0,0.3656
219.5,0.3637
219.0,0.3675
218.5,0.3701
218.0,0.3777
217.5,0.3881
217.0,0.3932
216.5,0.4070
216.0,0.4218
215.5,0.4451
215.0,0.4603
214.5,0.4897
214.0,0.5129
213.5,0.5421
213.0,0.5735
212.5,0.6061
212.0,0.6409
211.5,0.6766
211.0,0.7101
210.5,0.7479
210.0,0.7842
209.5,0.8326
209.0,0.8749
208.5,0.9111
208.0,0.9598
207.5,0.9910
207.0,1.0314
206.5,1.0722
206.0,1.1039
205.5,1.1344
205.0,1.1649
204.5,1.1874
204.0,1.2216
203.5,1.2518
203.0,1.2576
202.5,1.2737
202.0,1.2931
201.5,1.2843
201.0,1.2854
200.5,1.2890
200.0,1.2790
