"PAR 8 ug/mL"
"Wavelength nm.","Abs."
400.0,-0.0004
399.5,-0.0012
399.0,0.0001
398.5,0.0003
398.0,0.0005
397.5,-0.0000
397.0,0.0006
396.5,0.0003
396.0,0.0008
395.5,0.0010
395.0,-0.0002
394.5,-0.0006
394.0,0.0004
393.5,0.0004
393.0,-0.0003
392.5,0.0000
392.0,0.0005
391.5,-0.0002
391.0,0.0001
390.5,0.0003
390.0,0.0000
389.5,0.0001
389.0,0.0002
388.5,0.0002
388.0,0.0006
387.5,0.0004
387.0,0.0007
386.5,0.0000
386.0,-0.0000
385.5,0.0002
385.0,-0.0004
384.5,-0.0002
384.0,0.0007
383.5,0.0003
383.0,0.0005
382.5,0.0004
382.0,0.0001
381.5,0.0004
381.0,0.0000
380.5,0.0003
380.0,-0.0002
379.5,-0.0000
379.0,0.0001
378.5,0.0000
378.0,0.0001
377.5,0.0001
377.0,0.0006
376.5,0.0005
376.0,0.0004
375.5,0.0008
375.0,0.0005
374.5,-0.0001
374.0,0.0004
373.5,-0.0000
373.0,-0.0001
372.5,-0.0001
372.0,0.0003
371.5,-0.0004
371.0,0.0005
370.5,0.0001
370.0,-0.0004
369.5,0.0001
369.0,0.0003
368.5,-0.0003
368.0,0.0007
367.5,0.0001
367.0,0.0005
366.5,-0.0003
366.0,0.0003
365.5,0.0002
365.0,0.0007
364.5,0.0007
364.0,0.0007
363.5,0.0001
363.0,0.0009
362.5,-0.0003
362.0,0.0003
361.5,0.0011
361.0,0.0007
360.5,0.0004
360.0,0.0006
359.5,0.0001
359.0,-0.0001
358.5,0.0001
358.0,-0.0000
357.5,0.0001
357.0,0.0002
356.5,0.0009
356.0,-0.0009
355.5,0.0005
355.0,0.0004
354.5,0.0008
354.0,-0.0002
353.5,0.0002
353.0,-0.0001
352.5,0.0004
352.0,0.0002
351.5,0.0004
351.0,0.0004
350.5,0.0003
350.0,0.0001
349.5,-0.0000
349.0,0.0003
348.5,0.0001
348.0,0.0009
347.5,0.0006
347.0,0.0001
346.5,0.0002
346.0,0.0001
345.5,0.0010
345.0,-0.0005
344.5,0.0001
344.0,-0.0000
343.5,-0.0004
343.0,0.0007
342.5,-0.0001
342.0,-0.0003
341.5,0.0007
341.0,0.0003
340.5,0.0005
340.0,0.0005
339.5,0.0003
339.0,0.0001
338.5,0.0005
338.0,0.0001
337.5,0.0005
337.0,0.0002
336.5,0.0008
336.0,0.0009
335.5,-0.0000
335.0,0.0005
334.5,0.0011
334.0,0.0003
333.5,0.0005
333.0,0.0004
332.5,0.0004
332.0,0.0007
331.5,0.0004
331.0,0.0003
330.5,0.0005
330.0,0.0007
329.5,0.0007
329.0,0.0002
328.5,0.0004
328.0,0.0010
327.5,0.0001
327.0,0.0001
326.5,0.0001
326.0,0.0002
325.5,0.0003
325.0,0.0006
324.5,0.0006
324.0,0.0008
323.5,0.0006
323.0,0.0004
322.5,0.0003
322.0,0.0009
321.5,0.0002
321.0,0.0011
320.5,0.0004
320.0,0.0007
319.5,0.0006
319.0,0.0009
318.5,0.0009
318.0,0.0006
317.5,0.0005
317.0,0.0006
316.5,0.0005
316.0,0.0007
315.5,0.0010
315.0,0.0015
314.5,0.0003
314.0,0.0018
313.5,0.0014
313.0,0.0009
312.5,0.0010
312.0,0.0014
311.5,0.0022
311.0,0.0015
310.5,0.0020
310.0,0.0021
309.5,0.0021
309.0,0.0022
308.5,0.0029
308.0,0.0031
307.5,0.0036
307.0,0.0035
306.5,0.0039
306.0,0.0040
305.5,0.0044
305.0,0.0049
304.5,0.0059
304.0,0.0061
303.5,0.0062
303.0,0.0069
302.5,0.0074
302.0,0.0080
301.5,0.0086
301.0,0.0093
300.5,0.0105
300.0,0.0106
299.5,0.0116
299.0,0.0130
298.5,0.0131
298.0,0.0140
297.5,0.0152
297.0,0.0166
296.5,0.0172
296.0,0.0188
295.5,0.0196
295.0,0.0201
294.5,0.0215
294.0,0.0220
293.5,0.0239
293.0,0.0241
292.5,0.0254
292.0,0.0265
291.5,0.0279
291.0,0.0292
290.5,0.0297
290.0,0.0309
289.5,0.0316
289.0,0.0318
288.5,0.0340
288.0,0.0338
287.5,0.0347
287.0,0.0361
286.5,0.0368
286.0,0.0371
285.5,0.0366
285.0,0.0384
284.5,0.0394
284.0,0.0393
283.5,0.0401
283.0,0.0409
282.5,0.0414
282.0,0.0423
281.5,0.0433
281.0,0.0426
280.5,0.0442
280.0,0.0450
279.5,0.0458
279.0,0.0465
278.5,0.0481
278.0,0.0485
277.5,0.0490
277.0,0.0517
276.5,0.0528
276.0,0.0548
275.5,0.0568
275.0,0.0590
274.5,0.0609
274.0,0.0638
273.5,0.0670
273.0,0.0696
272.5,0.0721
272.0,0.0765
271.5,0.0796
271.0,0.0846
270.5,0.0886
270.0,0.0931
269.5,0.0980
269.0,0.1030
268.5,0.1095
268.0,0.1149
267.5,0.1216
267.0,0.1271
266.5,0.1363
266.0,0.1435
265.5,0.1508
265.0,0.1592
264.5,0.1680
264.0,0.1747
263.5,0.1842
263.0,0.1932
262.5,0.2028
262.0,0.2121
261.5,0.2229
261.0,0.2353
260.5,0.2453
260.0,0.2564
259.5,0.2662
259.0,0.2781
258.5,0.2898
258.0,0.3004
257.5,0.3119
257.0,0.3223
256.5,0.3362
256.0,0.3443
255.5,0.3566
255.0,0.3678
254.5,0.3798
254.0,0.3900
253.5,0.4012
253.0,0.4106
252.5,0.4239
252.0,0.4334
251.5,0.4425
251.0,0.4521
250.5,0.4627
250.0,0.4720
249.5,0.4791
249.0,0.4867
248.5,0.4948
248.0,0.5025
247.5,0.5064
247.0,0.5134
246.5,0.5177
246.0,0.5215
245.5,0.5243
245.0,0.5283
244.5,0.5325
244.0,0.5340
243.5,0.5344
243.0,0.5356
242.5,0.5321
242.0,0.5313
241.5,0.5311
241.0,0.5299
240.5,0.5273
240.0,0.5247
239.5,0.5225
239.0,0.5157
238.5,0.5090
238.0,0.5045
237.5,0.4959
237.0,0.4874
236.5,0.4834
236.0,0.4749
235.5,0.4653
235.0,0.4554
234.5,0.4464
234.0,0.4360
233.5,0.4269
233.0,0.4157
232.5,0.4069
232.0,0.3948
231.5,0.3869
231.0,0.3725
230.5,0.3615
230.0,0.3507
229.5,0.3410
229.0,0.3315
228.5,0.3204
228.0,0.3093
227.5,0.2991
227.0,0.2875
226.5,0.2788
226.0,0.2671
225.5,0.2583
225.0,0.2488
224.5,0.2420
224.0,0.2318
223.5,0.2260
223.0,0.2196
222.5,0.2127
222.0,0.2061
221.5,0.2052
221.0,0.2003
220.5,0.1962
220.0,0.1944
219.5,0.1949
219.0,0.1979
218.5,0.1956
218.0,0.2013
217.5,0.2043
217.0,0.2116
216.5,0.2180
216.0,0.2265
215.5,0.2340
215.0,0.2495
214.5,0.2589
214.0,0.2697
213.5,0.2849
213.0,0.3048
212.5,0.3190
212.0,0.3365
211.5,0.3542
211.0,0.3752
210.5,0.3999
210.0,0.4180
209.5,0.4376
209.0,0.4561
208.5,0.4844
208.0,0.5033
207.5,0.5272
207.0,0.5427
206.5,0.5695
206.0,0.5904
205.5,0.6034
205.0,0.6187
204.5,0.6295
204.0,0.6537
203.5,0.6657
203.0,0.6689
202.5,0.6779
202.0,0.6858
201.5,0.6918
201.0,0.6855
200.5,0.6805
200.0,0.6816
