"PAR 6 ug/mL"
"Wavelength nm.","Abs."
400.0,-0.0020
399.5,-0.0021
399.0,-0.0022
398.5,-0.0016
398.0,-0.0016
397.5,-0.0013
397.0,-0.0021
396.5,-0.0026
396.0,-0.0024
395.5,-0.0018
395.0,-0.0013
394.5,-0.0013
394.0,-0.0016
393.5,-0.0013
393.0,-0.0025
392.5,-0.0013
392.0,-0.0014
391.5,-0.0014
391.0,-0.0020
390.5,-0.0020
390.0,-0.0021
389.5,-0.0015
389.0,-0.0017
388.5,-0.0020
388.0,-0.0020
387.5,-0.0018
387.0,-0.0012
386.5,-0.0023
386.0,-0.0014
385.5,-0.0012
385.0,-0.0012
384.5,-0.0013
384.0,-0.0006
383.5,-0.0021
383.0,-0.0016
382.5,-0.0017
382.0,-0.0021
381.5,-0.0016
381.0,-0.0013
380.5,-0.0014
380.0,-0.0015
379.5,-0.0011
379.0,-0.0024
378.5,-0.0015
378.0,-0.0014
377.5,-0.0010
377.0,-0.0012
376.5,-0.0018
376.0,-0.0015
375.5,-0.0012
375.0,-0.0017
374.5,-0.0018
374.0,-0.0013
373.5,-0.0013
373.0,-0.0020
372.5,-0.0017
372.0,-0.0018
371.5,-0.0022
371.0,-0.0013
370.5,-0.0011
370.0,-0.0012
369.5,-0.0016
369.0,-0.0012
368.5,-0.0014
368.0,-0.0016
367.5,-0.0013
367.0,-0.0011
366.5,-0.0016
366.0,-0.0019
365.5,-0.0017
365.0,-0.0013
364.5,-0.0016
364.0,-0.0016
363.5,-0.0019
363.0,-0.0013
362.5,-0.0016
362.0,-0.0023
361.5,-0.0016
361.0,-0.0018
360.5,-0.0016
360.0,-0.0016
359.5,-0.0017
359.0,-0.0013
358.5,-0.0018
358.0,-0.0016
357.5,-0.0009
357.0,-0.0020
356.5,-0.0013
356.0,-0.0017
355.5,-0.0014
355.0,-0.0019
354.5,-0.0013
354.0,-0.0012
353.5,-0.0016
353.0,-0.0015
352.5,-0.0019
352.0,-0.0012
351.5,-0.0010
351.0,-0.0014
350.5,-0.0021
350.0,-0.0011
349.5,-0.0017
349.0,-0.0016
348.5,-0.0013
348.0,-0.0015
347.5,-0.0014
347.0,-0.0015
346.5,-0.0021
346.0,-0.0015
345.5,-0.0021
345.0,-0.0012
344.5,-0.0019
344.0,-0.0007
343.5,-0.0013
343.0,-0.0013
342.5,-0.0025
342.0,-0.0008
341.5,-0.0010
341.0,-0.0014
340.5,-0.0014
340.0,-0.0013
339.5,-0.0013
339.0,-0.0009
338.5,-0.0016
338.0,-0.0021
337.5,-0.0017
337.0,-0.0013
336.5,-0.0016
336.0,-0.0016
335.5,-0.0009
335.0,-0.0015
334.5,-0.0010
334.0,-0.0009
333.5,-0.0016
333.0,-0.0022
332.5,-0.0011
332.0,-0.0016
331.5,-0.0011
331.0,-0.0014
330.5,-0.0017
330.0,-0.0017
329.5,-0.0007
329.0,-0.0008
328.5,-0.0011
328.0,-0.0008
327.5,-0.0014
327.0,-0.0017
326.5,-0.0017
326.0,-0.0011
325.5,-0.0012
325.0,-0.0018
324.5,-0.0023
324.0,-0.0013
323.5,-0.0013
323.0,-0.0012
322.5,-0.0019
322.0,-0.0017
321.5,-0.0014
321.0,-0.0017
320.5,-0.0013
320.0,-0.0010
319.5,-0.0019
319.0,-0.0015
318.5,-0.0012
318.0,-0.0017
317.5,-0.0022
317.0,-0.0002
316.5,-0.0012
316.0,-0.0011
315.5,-0.0016
315.0,-0.0016
314.5,-0.0008
314.0,-0.0017
313.5,-0.0015
313.0,-0.0014
312.5,-0.0007
312.0,-0.0012
311.5,-0.0013
311.0,-0.0006
310.5,-0.0008
310.0,-0.0000
309.5,-0.0001
309.0,-0.0002
308.5,0.0002
308.0,-0.0008
307.5,0.0006
307.0,0.0002
306.5,0.0015
306.0,0.0013
305.5,0.0013
305.0,0.0012
304.5,0.0028
304.0,0.0022
303.5,0.0032
303.0,0.0031
302.5,0.0040
302.0,0.0045
301.5,0.0052
301.0,0.0052
300.5,0.0052
300.0,0.0061
299.5,0.0071
299.0,0.0079
298.5,0.0082
298.0,0.0090
297.5,0.0103
297.0,0.0106
296.5,0.0116
296.0,0.0116
295.5,0.0131
295.0,0.0138
294.5,0.0140
294.0,0.0148
293.5,0.0149
293.0,0.0166
292.5,0.0182
292.0,0.0186
291.5,0.0194
291.0,0.0207
290.5,0.0196
290.0,0.0212
289.5,0.0223
289.0,0.0231
288.5,0.0233
288.0,0.0239
287.5,0.0246
287.0,0.0251
286.5,0.0262
286.0,0.0258
285.5,0.0267
285.0,0.0265
284.5,0.0277
284.0,0.0279
283.5,0.0287
283.0,0.0286
282.5,0.0293
282.0,0.0300
281.5,0.0306
281.0,0.0313
280.5,0.0315
280.0,0.0317
279.5,0.0326
279.0,0.0334
278.5,0.0344
278.0,0.0348
277.5,0.0349
277.0,0.0373
276.5,0.0375
276.0,0.0399
275.5,0.0415
275.0,0.0431
274.5,0.0440
274.0,0.0465
273.5,0.0485
273.0,0.0507
272.5,0.0528
272.0,0.0554
271.5,0.0577
271.0,0.0613
270.5,0.0647
270.0,0.0687
269.5,0.0725
269.0,0.0769
268.5,0.0808
268.0,0.0856
267.5,0.0910
267.0,0.0953
266.5,0.1010
266.0,0.1068
265.5,0.1137
265.0,0.1163
264.5,0.1255
264.0,0.1309
263.5,0.1377
263.0,0.1458
262.5,0.1527
262.0,0.1588
261.5,0.1674
261.0,0.1749
260.5,0.1835
260.0,0.1907
259.5,0.2001
259.0,0.2077
258.5,0.2173
258.0,0.2241
257.5,0.2336
257.0,0.2438
256.5,0.2509
256.0,0.2589
255.5,0.2675
255.0,0.2761
254.5,0.2853
254.0,0.2932
253.5,0.3014
253.0,0.3114
252.5,0.3190
252.0,0.3259
251.5,0.3318
251.0,0.3411
250.5,0.3480
250.0,0.3520
249.5,0.3600
249.0,0.3645
248.5,0.3675
248.0,0.3761
247.5,0.3785
247.0,0.3829
246.5,0.3868
246.0,0.3900
245.5,0.3954
245.0,0.3961
244.5,0.3963
244.0,0.4000
243.5,0.3988
243.0,0.4018
242.5,0.4017
242.0,0.4006
241.5,0.3986
241.0,0.3950
240.5,0.3939
240.0,0.3917
239.5,0.3886
239.0,0.3841
238.5,0.3809
238.0,0.3756
237.5,0.3688
237.0,0.3657
236.5,0.3599
236.0,0.3540
235.5,0.3458
235.0,0.3418
234.5,0.3349
234.0,0.3255
233.5,0.3196
233.0,0.3119
232.5,0.2998
232.0,0.2964
231.5,0.2873
231.0,0.2790
230.5,0.2709
230.0,0.2639
229.5,0.2545
229.0,0.2456
228.5,0.2359
228.0,0.2295
227.5,0.2190
227.0,0.2133
226.5,0.2060
226.0,0.1981
225.5,0.1931
225.0,0.1860
224.5,0.1778
224.0,0.1724
223.5,0.1680
223.0,0.1611
222.5,0.1582
222.0,0.1558
221.5,0.1527
221.0,0.1500
220.5,0.1466
220.0,0.1453
219.5,0.1433
219.0,0.1467
218.5,0.1483
218.0,0.1505
217.5,0.1528
217.0,0.1586
216.5,0.1621
216.0,0.1691
215.5,0.1758
215.0,0.1837
214.5,0.1945
214.0,0.2037
213.5,0.2152
213.0,0.2256
212.5,0.2422
212.0,0.2525
211.5,0.2684
211.0,0.2838
210.5,0.3000
210.0,0.3176
209.5,0.3307
209.0,0.3466
208.5,0.3624
208.0,0.3814
207.5,0.3962
207.0,0.4058
206.5,0.4248
206.0,0.4391
205.5,0.4562
205.0,0.4666
204.5,0.4732
204.0,0.4916
203.5,0.4910
203.0,0.4964
202.5,0.5019
202.0,0.5119
201.5,0.5068
201.0,0.5187
200.5,0.5173
200.0,0.5162
