CAF 2,,CAF 4,,CAF 6,,CAF 8,,CAF 10,,CAF 12,,CAF 15,,CAF 20,
Wavelength (nm),Abs,Wavelength (nm),Abs,Wavelength (nm),Abs,Wavelength (nm),Abs,Wavelength (nm),Abs,Wavelength (nm),Abs,Wavelength (nm),Abs,Wavelength (nm),Abs,
400.0,0.0005,400.0,0.0001,400.0,0.0002,400.0,0.0007,400.0,0.0021,400.0,0.0006,400.0,0.0005,400.0,0.0016,
399.0,0.0003,399.0,-0.0003,399.0,-0.0001,399.0,-0.0004,399.0,0.0013,399.0,0.0007,399.0,0.0008,399.0,0.0009,
398.0,-0.0002,398.0,0.0009,398.0,-0.0004,398.0,-0.0003,398.0,0.0012,398.0,0.0006,398.0,0.0003,398.0,0.0015,
397.0,0.0013,397.0,0.0005,397.0,-0.0001,397.0,0.0008,397.0,0.0024,397.0,-0.0001,397.0,0.0007,397.0,0.0013,
396.0,0.0004,396.0,0.0008,396.0,0.0005,396.0,0.0004,396.0,0.0019,396.0,-0.0000,396.0,0.0006,396.0,0.0015,
395.0,0.0015,395.0,-0.0001,395.0,0.0000,395.0,0.0002,395.0,0.0024,395.0,0.0009,395.0,0.0003,395.0,0.0003,
394.0,0.0012,394.0,-0.0001,394.0,-0.0005,394.0,0.0001,394.0,0.0016,394.0,0.0006,394.0,0.0008,394.0,0.0004,
393.0,0.0011,393.0,0.0005,393.0,-0.0004,393.0,0.0008,393.0,0.0013,393.0,0.0007,393.0,-0.0001,393.0,0.0002,
392.0,0.0007,392.0,0.0011,392.0,-0.0005,392.0,0.0005,392.0,0.0023,392.0,0.0007,392.0,0.0000,392.0,0.0016,
391.0,0.0010,391.0,0.0005,391.0,0.0003,391.0,0.0006,391.0,0.0014,391.0,0.0005,391.0,0.0009,391.0,0.0010,
390.0,0.0007,390.0,0.0004,390.0,-0.0005,390.0,0.0005,390.0,0.0018,390.0,0.0007,390.0,0.0006,390.0,0.0012,
389.0,0.0013,389.0,0.0005,389.0,0.0005,389.0,0.0005,389.0,0.0010,389.0,0.0004,389.0,0.0004,389.0,0.0005,
388.0,0.0007,388.0,0.0006,388.0,0.0007,388.0,-0.0003,388.0,0.0018,388.0,-0.0001,388.0,0.0003,388.0,0.0007,
387.0,0.0012,387.0,0.0002,387.0,-0.0005,387.0,0.0006,387.0,0.0014,387.0,0.0005,387.0,-0.0002,387.0,0.0012,
386.0,0.0012,386.0,0.0007,386.0,-0.0003,386.0,0.0008,386.0,0.0016,386.0,0.0004,386.0,0.0005,386.0,0.0020,
385.0,0.0008,385.0,0.0009,385.0,0.0005,385.0,0.0004,385.0,0.0016,385.0,0.0009,385.0,-0.0004,385.0,0.0017,
384.0,0.0006,384.0,0.0015,384.0,0.0001,384.0,0.0009,384.0,0.0022,384.0,0.0011,384.0,0.0002,384.0,0.0009,
383.0,0.0004,383.0,0.0004,383.0,-0.0005,383.0,0.0000,383.0,0.0015,383.0,0.0009,383.0,0.0005,383.0,0.0011,
382.0,0.0008,382.0,0.0009,382.0,0.0001,382.0,0.0011,382.0,0.0018,382.0,0.0008,382.0,0.0007,382.0,0.0014,
381.0,0.0011,381.0,0.0006,381.0,0.0006,381.0,0.0002,381.0,0.0018,381.0,0.0010,381.0,0.0007,381.0,0.0013,
380.0,0.0012,380.0,-0.0002,380.0,-0.0005,380.0,-0.0001,380.0,0.0015,380.0,0.0004,380.0,0.0005,380.0,0.0014,
379.0,0.0004,379.0,-0.0006,379.0,-0.0002,379.0,0.0004,379.0,0.0022,379.0,0.0004,379.0,0.0013,379.0,0.0007,
378.0,0.0001,378.0,0.0002,378.0,0.0001,378.0,0.0013,378.0,0.0018,378.0,0.0004,378.0,0.0006,378.0,0.0012,
377.0,0.0017,377.0,0.0003,377.0,0.0003,377.0,0.0000,377.0,0.0014,377.0,-0.0005,377.0,-0.0001,377.0,0.0011,
376.0,0.0005,376.0,0.0004,376.0,-0.0006,376.0,0.0005,376.0,0.0012,376.0,0.0009,376.0,-0.0001,376.0,0.0016,
375.0,0.0006,375.0,0.0009,375.0,0.0000,375.0,0.0002,375.0,0.0014,375.0,0.0003,375.0,0.0001,375.0,0.0008,
374.0,0.0009,374.0,-0.0001,374.0,-0.0006,374.0,0.0000,374.0,0.0019,374.0,0.0002,374.0,0.0004,374.0,0.0012,
373.0,0.0010,373.0,0.0012,373.0,0.0001,373.0,0.0006,373.0,0.0021,373.0,-0.0000,373.0,0.0005,373.0,0.0010,
372.0,0.0008,372.0,0.0003,372.0,-0.0007,372.0,0.0003,372.0,0.0019,372.0,0.0000,372.0,0.0004,372.0,0.0004,
371.0,0.0006,371.0,0.0005,371.0,0.0003,371.0,0.0003,371.0,0.0018,371.0,0.0007,371.0,0.0008,371.0,0.0007,
370.0,0.0012,370.0,0.0003,370.0,-0.0002,370.0,0.0000,370.0,0.0016,370.0,0.0005,370.0,-0.0001,370.0,0.0006,
369.0,0.0018,369.0,0.0003,369.0,-0.0000,369.0,0.0002,369.0,0.0015,369.0,0.0004,369.0,0.0005,369.0,0.0013,
368.0,0.0015,368.0,0.0002,368.0,-0.0000,368.0,0.0003,368.0,0.0020,368.0,0.0005,368.0,0.0007,368.0,0.0005,
367.0,0.0011,367.0,0.0004,367.0,-0.0007,367.0,-0.0001,367.0,0.0017,367.0,0.0001,367.0,0.0008,367.0,0.0010,
366.0,0.0002,366.0,0.0001,366.0,0.0005,366.0,0.0003,366.0,0.0017,366.0,0.0004,366.0,0.0002,366.0,0.0003,
365.0,0.0000,365.0,0.0004,365.0,-0.0004,365.0,0.0009,365.0,0.0013,365.0,0.0002,365.0,0.0004,365.0,0.0010,
364.0,0.0008,364.0,0.0009,364.0,-0.0003,364.0,0.0006,364.0,0.0012,364.0,0.0004,364.0,0.0008,364.0,0.0005,
363.0,0.0013,363.0,0.0006,363.0,-0.0006,363.0,0.0007,363.0,0.0025,363.0,0.0005,363.0,0.0002,363.0,0.0011,
362.0,0.0004,362.0,0.0005,362.0,-0.0003,362.0,0.0004,362.0,0.0018,362.0,0.0005,362.0,0.0001,362.0,0.0013,
361.0,0.0013,361.0,0.0004,361.0,-0.0015,361.0,-0.0002,361.0,0.0021,361.0,0.0007,361.0,0.0003,361.0,0.0005,
360.0,0.0011,360.0,0.0009,360.0,-0.0000,360.0,0.0004,360.0,0.0010,360.0,0.0005,360.0,0.0005,360.0,0.0005,
359.0,0.0013,359.0,0.0001,359.0,0.0001,359.0,0.0003,359.0,0.0020,359.0,0.0004,359.0,0.0006,359.0,0.0011,
358.0,0.0010,358.0,0.0005,358.0,-0.0000,358.0,0.0005,358.0,0.0014,358.0,-0.0001,358.0,0.0008,358.0,0.0005,
357.0,0.0009,357.0,0.0007,357.0,-0.0003,357.0,0.0005,357.0,0.0020,357.0,0.0014,357.0,0.0000,357.0,0.0013,
356.0,0.0005,356.0,0.0006,356.0,0.0000,356.0,-0.0007,356.0,0.0024,356.0,0.0003,356.0,0.0005,356.0,0.0007,
355.0,0.0006,355.0,0.0007,355.0,-0.0005,355.0,0.0003,355.0,0.0027,355.0,0.0006,355.0,0.0013,355.0,0.0007,
354.0,0.0006,354.0,0.0004,354.0,-0.0000,354.0,0.0003,354.0,0.0023,354.0,0.0007,354.0,0.0003,354.0,0.0006,
353.0,0.0006,353.0,0.0003,353.0,-0.0004,353.0,0.0002,353.0,0.0020,353.0,0.0009,353.0,0.0005,353.0,0.0001,
352.0,0.0002,352.0,0.0007,352.0,-0.0004,352.0,-0.0002,352.0,0.0014,352.0,0.0007,352.0,0.0001,352.0,0.0007,
351.0,0.0010,351.0,0.0009,351.0,-0.0003,351.0,0.0001,351.0,0.0017,351.0,0.0011,351.0,-0.0005,351.0,0.0009,
350.0,0.0006,350.0,0.0010,350.0,0.0002,350.0,0.0006,350.0,0.0014,350.0,0.0005,350.0,0.0006,350.0,0.0012,
349.0,0.0011,349.0,0.0009,349.0,0.0005,349.0,0.0002,349.0,0.0018,349.0,0.0002,349.0,0.0005,349.0,0.0009,
348.0,0.0007,348.0,0.0002,348.0,-0.0003,348.0,0.0002,348.0,0.0014,348.0,-0.0002,348.0,0.0003,348.0,0.0004,
347.0,0.0008,347.0,0.0007,347.0,-0.0003,347.0,-0.0005,347.0,0.0024,347.0,0.0007,347.0,0.0003,347.0,0.0005,
346.0,0.0008,346.0,0.0004,346.0,-0.0007,346.0,0.0002,346.0,0.0015,346.0,0.0011,346.0,0.0001,346.0,0.0005,
345.0,0.0009,345.0,0.0006,345.0,-0.0007,345.0,0.0008,345.0,0.0019,345.0,0.0010,345.0,0.0002,345.0,0.0010,
344.0,0.0007,344.0,0.0002,344.0,-0.0004,344.0,0.0005,344.0,0.0019,344.0,0.0002,344.0,-0.0003,344.0,0.0006,
343.0,0.0010,343.0,0.0004,343.0,-0.0002,343.0,0.0003,343.0,0.0014,343.0,0.0006,343.0,0.0002,343.0,0.0007,
342.0,0.0016,342.0,0.0001,342.0,-0.0006,342.0,0.0003,342.0,0.0024,342.0,0.0004,342.0,0.0007,342.0,0.0012,
341.0,0.0007,341.0,0.0005,341.0,0.0000,341.0,0.0008,341.0,0.0021,341.0,0.0005,341.0,0.0004,341.0,0.0009,
340.0,0.0009,340.0,0.0004,340.0,-0.0005,340.0,0.0006,340.0,0.0019,340.0,0.0002,340.0,-0.0004,340.0,0.0020,
339.0,0.0010,339.0,0.0002,339.0,-0.0006,339.0,0.0008,339.0,0.0023,339.0,0.0014,339.0,0.0003,339.0,0.0007,
338.0,0.0013,338.0,0.0003,338.0,0.0010,338.0,0.0001,338.0,0.0021,338.0,0.0005,338.0,0.0000,338.0,0.0001,
337.0,0.0013,337.0,0.0007,337.0,-0.0010,337.0,0.0008,337.0,0.0021,337.0,0.0004,337.0,0.0008,337.0,0.0003,
336.0,0.0010,336.0,0.0007,336.0,0.0001,336.0,0.0007,336.0,0.0022,336.0,-0.0001,336.0,-0.0001,336.0,0.0010,
335.0,0.0007,335.0,-0.0000,335.0,-0.0001,335.0,0.0000,335.0,0.0013,335.0,0.0008,335.0,0.0002,335.0,0.0005,
334.0,0.0008,334.0,0.0000,334.0,-0.0007,334.0,0.0003,334.0,0.0014,334.0,0.0009,334.0,0.0005,334.0,0.0005,
333.0,0.0012,333.0,0.0008,333.0,-0.0004,333.0,-0.0000,333.0,0.0025,333.0,0.0006,333.0,0.0009,333.0,0.0008,
332.0,0.0009,332.0,0.0008,332.0,-0.0002,332.0,0.0003,332.0,0.0018,332.0,0.0003,332.0,0.0000,332.0,0.0012,
331.0,0.0008,331.0,0.0008,331.0,-0.0002,331.0,-0.0002,331.0,0.0016,331.0,0.0011,331.0,0.0003,331.0,0.0011,
330.0,0.0010,330.0,0.0008,330.0,-0.0007,330.0,0.0003,330.0,0.0022,330.0,0.0010,330.0,0.0005,330.0,0.0003,
329.0,0.0007,329.0,0.0006,329.0,-0.0012,329.0,0.0003,329.0,0.0020,329.0,0.0004,329.0,0.0003,329.0,0.0015,
328.0,-0.0002,328.0,0.0008,328.0,0.0000,328.0,0.0003,328.0,0.0020,328.0,0.0006,328.0,-0.0005,328.0,0.0006,
327.0,0.0004,327.0,0.0005,327.0,-0.0009,327.0,-0.0004,327.0,0.0017,327.0,0.0005,327.0,0.0006,327.0,0.0014,
326.0,0.0018,326.0,0.0005,326.0,-0.0008,326.0,0.0009,326.0,0.0012,326.0,0.0004,326.0,0.0005,326.0,0.0009,
325.0,0.0008,325.0,0.0003,325.0,-0.0006,325.0,0.0002,325.0,0.0024,325.0,0.0015,325.0,-0.0002,325.0,0.0010,
324.0,0.0007,324.0,-0.0003,324.0,0.0001,324.0,0.0001,324.0,0.0025,324.0,0.0008,324.0,0.0008,324.0,0.0007,
323.0,0.0011,323.0,0.0004,323.0,-0.0008,323.0,0.0003,323.0,0.0013,323.0,0.0005,323.0,0.0003,323.0,0.0004,
322.0,0.0009,322.0,0.0003,322.0,-0.0002,322.0,-0.0002,322.0,0.0023,322.0,0.0008,322.0,0.0004,322.0,0.0014,
321.0,0.0006,321.0,0.0004,321.0,-0.0009,321.0,0.0011,321.0,0.0022,321.0,0.0007,321.0,0.0008,321.0,0.0014,
320.0,0.0011,320.0,0.0007,320.0,-0.0003,320.0,0.0009,320.0,0.0024,320.0,0.0008,320.0,0.0002,320.0,0.0013,
319.0,0.0008,319.0,0.0005,319.0,-0.0003,319.0,0.0006,319.0,0.0028,319.0,0.0009,319.0,0.0001,319.0,0.0014,
318.0,0.0009,318.0,-0.0001,318.0,-0.0006,318.0,0.0003,318.0,0.0022,318.0,0.0007,318.0,0.0009,318.0,0.0016,
317.0,0.0007,317.0,0.0001,317.0,0.0000,317.0,0.0004,317.0,0.0022,317.0,0.0017,317.0,0.0002,317.0,0.0014,
316.0,0.0015,316.0,0.0006,316.0,0.0001,316.0,0.0006,316.0,0.0027,316.0,0.0014,316.0,0.0007,316.0,0.0020,
315.0,0.0016,315.0,0.0006,315.0,-0.0000,315.0,0.0004,315.0,0.0029,315.0,0.0021,315.0,0.0019,315.0,0.0023,
314.0,0.0011,314.0,0.0005,314.0,0.0006,314.0,0.0008,314.0,0.0031,314.0,0.0025,314.0,0.0018,314.0,0.0041,
313.0,0.0011,313.0,0.0013,313.0,0.0011,313.0,0.0017,313.0,0.0038,313.0,0.0034,313.0,0.0026,313.0,0.0051,
312.0,0.0012,312.0,0.0008,312.0,0.0010,312.0,0.0017,312.0,0.0047,312.0,0.0029,312.0,0.0035,312.0,0.0060,
311.0,0.0021,311.0,0.0011,311.0,0.0012,311.0,0.0029,311.0,0.0054,311.0,0.0042,311.0,0.0046,311.0,0.0077,
310.0,0.0016,310.0,0.0016,310.0,0.0022,310.0,0.0040,310.0,0.0063,310.0,0.0048,310.0,0.0060,310.0,0.0098,
309.0,0.0021,309.0,0.0025,309.0,0.0025,309.0,0.0049,309.0,0.0072,309.0,0.0072,309.0,0.0086,309.0,0.0123,
308.0,0.0018,308.0,0.0026,308.0,0.0037,308.0,0.0060,308.0,0.0092,308.0,0.0104,308.0,0.0101,308.0,0.0152,
307.0,0.0027,307.0,0.0038,307.0,0.0047,307.0,0.0074,307.0,0.0109,307.0,0.0119,307.0,0.0135,307.0,0.0187,
306.0,0.0032,306.0,0.0056,306.0,0.0063,306.0,0.0088,306.0,0.0134,306.0,0.0150,306.0,0.0164,306.0,0.0233,
305.0,0.0028,305.0,0.0054,305.0,0.0077,305.0,0.0114,305.0,0.0166,305.0,0.0182,305.0,0.0209,305.0,0.0298,
304.0,0.0042,304.0,0.0071,304.0,0.0100,304.0,0.0152,304.0,0.0197,304.0,0.0219,304.0,0.0257,304.0,0.0370,
303.0,0.0055,303.0,0.0098,303.0,0.0126,303.0,0.0179,303.0,0.0244,303.0,0.0274,303.0,0.0323,303.0,0.0455,
302.0,0.0069,302.0,0.0114,302.0,0.0156,302.0,0.0228,302.0,0.0285,302.0,0.0333,302.0,0.0401,302.0,0.0556,
301.0,0.0073,301.0,0.0134,301.0,0.0194,301.0,0.0269,301.0,0.0341,301.0,0.0407,301.0,0.0492,301.0,0.0665,
300.0,0.0090,300.0,0.0154,300.0,0.0244,300.0,0.0326,300.0,0.0419,300.0,0.0486,300.0,0.0582,300.0,0.0813,
299.0,0.0106,299.0,0.0194,299.0,0.0284,299.0,0.0389,299.0,0.0502,299.0,0.0587,299.0,0.0709,299.0,0.0968,
298.0,0.0120,298.0,0.0230,298.0,0.0338,298.0,0.0458,298.0,0.0595,298.0,0.0694,298.0,0.0843,298.0,0.1157,
297.0,0.0143,297.0,0.0264,297.0,0.0396,297.0,0.0549,297.0,0.0699,297.0,0.0831,297.0,0.1012,297.0,0.1377,
296.0,0.0172,296.0,0.0322,296.0,0.0484,296.0,0.0645,296.0,0.0820,296.0,0.0969,296.0,0.1185,296.0,0.1617,
295.0,0.0193,295.0,0.0365,295.0,0.0567,295.0,0.0765,295.0,0.0959,295.0,0.1148,295.0,0.1387,295.0,0.1876,
294.0,0.0230,294.0,0.0419,294.0,0.0655,294.0,0.0877,294.0,0.1113,294.0,0.1310,294.0,0.1604,294.0,0.2190,
293.0,0.0260,293.0,0.0501,293.0,0.0746,293.0,0.1014,293.0,0.1266,293.0,0.1508,293.0,0.1841,293.0,0.2511,
292.0,0.0298,292.0,0.0575,292.0,0.0856,292.0,0.1139,292.0,0.1452,292.0,0.1743,292.0,0.2115,292.0,0.2885,
291.0,0.0346,291.0,0.0640,291.0,0.0982,291.0,0.1312,291.0,0.1637,291.0,0.1985,291.0,0.2416,291.0,0.3284,
290.0,0.0382,290.0,0.0727,290.0,0.1104,290.0,0.1466,290.0,0.1868,290.0,0.2219,290.0,0.2744,290.0,0.3684,
289.0,0.0425,289.0,0.0828,289.0,0.1240,289.0,0.1651,289.0,0.2089,289.0,0.2496,289.0,0.3050,289.0,0.4157,
288.0,0.0476,288.0,0.0910,288.0,0.1378,288.0,0.1840,288.0,0.2308,288.0,0.2788,288.0,0.3412,288.0,0.4614,
287.0,0.0508,287.0,0.1007,287.0,0.1520,287.0,0.2034,287.0,0.2566,287.0,0.3074,287.0,0.3779,287.0,0.5118,
286.0,0.0569,286.0,0.1103,286.0,0.1679,286.0,0.2242,286.0,0.2800,286.0,0.3384,286.0,0.4156,286.0,0.5612,
285.0,0.0619,285.0,0.1214,285.0,0.1825,285.0,0.2446,285.0,0.3071,285.0,0.3697,285.0,0.4556,285.0,0.6111,
284.0,0.0676,284.0,0.1312,284.0,0.1974,284.0,0.2639,284.0,0.3331,284.0,0.4004,284.0,0.4928,284.0,0.6652,
283.0,0.0711,283.0,0.1398,283.0,0.2133,283.0,0.2836,283.0,0.3562,283.0,0.4292,283.0,0.5295,283.0,0.7092,
282.0,0.0768,282.0,0.1510,282.0,0.2271,282.0,0.3017,282.0,0.3804,282.0,0.4607,282.0,0.5651,282.0,0.7586,
281.0,0.0805,281.0,0.1599,281.0,0.2413,281.0,0.3215,281.0,0.4050,281.0,0.4852,281.0,0.6003,281.0,0.8040,
280.0,0.0860,280.0,0.1670,280.0,0.2533,280.0,0.3384,280.0,0.4253,280.0,0.5131,280.0,0.6321,280.0,0.8490,
279.0,0.0889,279.0,0.1765,279.0,0.2671,279.0,0.3544,279.0,0.4468,279.0,0.5338,279.0,0.6604,279.0,0.8851,
278.0,0.0912,278.0,0.1830,278.0,0.2755,278.0,0.3664,278.0,0.4626,278.0,0.5580,278.0,0.6893,278.0,0.9221,
277.0,0.0960,277.0,0.1884,277.0,0.2848,277.0,0.3807,277.0,0.4772,277.0,0.5757,277.0,0.7133,277.0,0.9451,
276.0,0.0979,276.0,0.1932,276.0,0.2891,276.0,0.3887,276.0,0.4868,276.0,0.5880,276.0,0.7299,276.0,0.9699,
275.0,0.0997,275.0,0.1982,275.0,0.2963,275.0,0.3936,275.0,0.4981,275.0,0.5994,275.0,0.7454,275.0,0.9893,
274.0,0.1009,274.0,0.2000,274.0,0.3010,274.0,0.3996,274.0,0.5016,274.0,0.6055,274.0,0.7519,274.0,0.9966,
273.0,0.1013,273.0,0.2014,273.0,0.2992,273.0,0.4020,273.0,0.5029,273.0,0.6067,273.0,0.7518,273.0,1.0000,
272.0,0.1010,272.0,0.2007,272.0,0.2986,272.0,0.4001,272.0,0.5005,272.0,0.6054,272.0,0.7506,272.0,0.9968,
271.0,0.0989,271.0,0.1973,271.0,0.2956,271.0,0.3928,271.0,0.4961,271.0,0.6009,271.0,0.7479,271.0,0.9824,
270.0,0.0986,270.0,0.1946,270.0,0.2898,270.0,0.3876,270.0,0.4885,270.0,0.5895,270.0,0.7287,270.0,0.9693,
269.0,0.0957,269.0,0.1885,269.0,0.2836,269.0,0.3773,269.0,0.4777,269.0,0.5736,269.0,0.7171,269.0,0.9415,
268.0,0.0933,268.0,0.1862,268.0,0.2737,268.0,0.3676,268.0,0.4634,268.0,0.5588,268.0,0.6948,268.0,0.9137,
267.0,0.0889,267.0,0.1774,267.0,0.2643,267.0,0.3511,267.0,0.4447,267.0,0.5376,267.0,0.6689,267.0,0.8818,
266.0,0.0847,266.0,0.1700,266.0,0.2526,266.0,0.3362,266.0,0.4238,266.0,0.5132,266.0,0.6420,266.0,0.8358,
265.0,0.0803,265.0,0.1611,265.0,0.2393,265.0,0.3190,265.0,0.4037,265.0,0.4857,265.0,0.6074,265.0,0.7974,
264.0,0.0756,264.0,0.1520,264.0,0.2247,264.0,0.3015,264.0,0.3798,264.0,0.4578,264.0,0.5727,264.0,0.7521,
263.0,0.0714,263.0,0.1428,263.0,0.2103,263.0,0.2818,263.0,0.3552,263.0,0.4309,263.0,0.5388,263.0,0.7063,
262.0,0.0663,262.0,0.1331,262.0,0.1953,262.0,0.2613,262.0,0.3303,262.0,0.3989,262.0,0.5015,262.0,0.6554,
261.0,0.0610,261.0,0.1234,261.0,0.1811,261.0,0.2431,261.0,0.3059,261.0,0.3673,261.0,0.4599,261.0,0.6033,
260.0,0.0565,260.0,0.1127,260.0,0.1664,260.0,0.2220,260.0,0.2802,260.0,0.3399,260.0,0.4236,260.0,0.5548,
259.0,0.0511,259.0,0.1020,259.0,0.1509,259.0,0.2039,259.0,0.2552,259.0,0.3097,259.0,0.3868,259.0,0.5041,
258.0,0.0470,258.0,0.0939,258.0,0.1360,258.0,0.1832,258.0,0.2309,258.0,0.2782,258.0,0.3508,258.0,0.4569,
257.0,0.0425,257.0,0.0838,257.0,0.1217,257.0,0.1639,257.0,0.2070,257.0,0.2523,257.0,0.3156,257.0,0.4097,
256.0,0.0377,256.0,0.0741,256.0,0.1085,256.0,0.1471,256.0,0.1856,256.0,0.2227,256.0,0.2788,256.0,0.3654,
255.0,0.0326,255.0,0.0656,255.0,0.0961,255.0,0.1285,255.0,0.1651,255.0,0.1974,255.0,0.2475,255.0,0.3223,
254.0,0.0287,254.0,0.0579,254.0,0.0848,254.0,0.1137,254.0,0.1473,254.0,0.1747,254.0,0.2189,254.0,0.2829,
253.0,0.0254,253.0,0.0510,253.0,0.0736,253.0,0.0988,253.0,0.1271,253.0,0.1532,253.0,0.1903,253.0,0.2486,
252.0,0.0221,252.0,0.0441,252.0,0.0637,252.0,0.0864,252.0,0.1106,252.0,0.1333,252.0,0.1658,252.0,0.2170,
251.0,0.0196,251.0,0.0395,251.0,0.0556,251.0,0.0750,251.0,0.0976,251.0,0.1153,251.0,0.1447,251.0,0.1882,
250.0,0.0183,250.0,0.0341,250.0,0.0472,250.0,0.0644,250.0,0.0845,250.0,0.1000,250.0,0.1257,250.0,0.1624,
249.0,0.0152,249.0,0.0285,249.0,0.0408,249.0,0.0561,249.0,0.0728,249.0,0.0871,249.0,0.1077,249.0,0.1401,
248.0,0.0136,248.0,0.0250,248.0,0.0352,248.0,0.0478,248.0,0.0618,248.0,0.0735,248.0,0.0926,248.0,0.1204,
247.0,0.0106,247.0,0.0216,247.0,0.0307,247.0,0.0416,247.0,0.0551,247.0,0.0644,247.0,0.0811,247.0,0.1044,
246.0,0.0105,246.0,0.0195,246.0,0.0256,246.0,0.0368,246.0,0.0477,246.0,0.0562,246.0,0.0698,246.0,0.0915,
245.0,0.0087,245.0,0.0170,245.0,0.0236,245.0,0.0320,245.0,0.0433,245.0,0.0512,245.0,0.0633,245.0,0.0825,
244.0,0.0083,244.0,0.0150,244.0,0.0219,244.0,0.0299,244.0,0.0391,244.0,0.0463,244.0,0.0572,244.0,0.0764,
243.0,0.0083,243.0,0.0142,243.0,0.0196,243.0,0.0281,243.0,0.0374,243.0,0.0442,243.0,0.0537,243.0,0.0725,
242.0,0.0083,242.0,0.0145,242.0,0.0205,242.0,0.0270,242.0,0.0366,242.0,0.0441,242.0,0.0532,242.0,0.0712,
241.0,0.0075,241.0,0.0148,241.0,0.0204,241.0,0.0282,241.0,0.0381,241.0,0.0445,241.0,0.0545,241.0,0.0726,
240.0,0.0094,240.0,0.0151,240.0,0.0214,240.0,0.0295,240.0,0.0412,240.0,0.0462,240.0,0.0561,240.0,0.0769,
239.0,0.0090,239.0,0.0155,239.0,0.0238,239.0,0.0327,239.0,0.0433,239.0,0.0512,239.0,0.0611,239.0,0.0832,
238.0,0.0103,238.0,0.0180,238.0,0.0260,238.0,0.0372,238.0,0.0482,238.0,0.0561,238.0,0.0679,238.0,0.0930,
237.0,0.0101,237.0,0.0202,237.0,0.0297,237.0,0.0415,237.0,0.0524,237.0,0.0622,237.0,0.0761,237.0,0.1021,
236.0,0.0119,236.0,0.0219,236.0,0.0333,236.0,0.0460,236.0,0.0583,236.0,0.0688,236.0,0.0838,236.0,0.1140,
235.0,0.0140,235.0,0.0252,235.0,0.0374,235.0,0.0506,235.0,0.0653,235.0,0.0785,235.0,0.0960,235.0,0.1290,
234.0,0.0159,234.0,0.0276,234.0,0.0422,234.0,0.0573,234.0,0.0732,234.0,0.0874,234.0,0.1061,234.0,0.1420,
233.0,0.0171,233.0,0.0317,233.0,0.0461,233.0,0.0627,233.0,0.0812,233.0,0.0966,233.0,0.1175,233.0,0.1593,
232.0,0.0183,232.0,0.0356,232.0,0.0512,232.0,0.0703,232.0,0.0893,232.0,0.1077,232.0,0.1314,232.0,0.1753,
231.0,0.0209,231.0,0.0389,231.0,0.0573,231.0,0.0793,231.0,0.1007,231.0,0.1182,231.0,0.1457,231.0,0.1978,
230.0,0.0216,230.0,0.0430,230.0,0.0640,230.0,0.0870,230.0,0.1119,230.0,0.1315,230.0,0.1612,230.0,0.2165,
229.0,0.0252,229.0,0.0473,229.0,0.0713,229.0,0.0964,229.0,0.1226,229.0,0.1465,229.0,0.1793,229.0,0.2399,
228.0,0.0279,228.0,0.0537,228.0,0.0781,228.0,0.1058,228.0,0.1355,228.0,0.1625,228.0,0.1976,228.0,0.2686,
227.0,0.0309,227.0,0.0585,227.0,0.0885,227.0,0.1184,227.0,0.1505,227.0,0.1800,227.0,0.2217,227.0,0.2997,
226.0,0.0344,226.0,0.0648,226.0,0.0998,226.0,0.1338,226.0,0.1678,226.0,0.2030,226.0,0.2475,226.0,0.3360,
225.0,0.0386,225.0,0.0735,225.0,0.1116,225.0,0.1509,225.0,0.1898,225.0,0.2269,225.0,0.2787,225.0,0.3769,
224.0,0.0431,224.0,0.0843,224.0,0.1266,224.0,0.1697,224.0,0.2143,224.0,0.2598,224.0,0.3159,224.0,0.4300,
223.0,0.0482,223.0,0.0959,223.0,0.1462,223.0,0.1952,223.0,0.2439,223.0,0.2925,223.0,0.3599,223.0,0.4864,
222.0,0.0563,222.0,0.1079,222.0,0.1668,222.0,0.2217,222.0,0.2790,222.0,0.3368,222.0,0.4125,222.0,0.5590,
221.0,0.0641,221.0,0.1257,221.0,0.1901,221.0,0.2546,221.0,0.3188,221.0,0.3833,221.0,0.4699,221.0,0.6330,
220.0,0.0721,220.0,0.1416,220.0,0.2182,220.0,0.2900,220.0,0.3643,220.0,0.4375,220.0,0.5348,220.0,0.7286,
219.0,0.0832,219.0,0.1639,219.0,0.2478,219.0,0.3304,219.0,0.4178,219.0,0.4999,219.0,0.6113,219.0,0.8269,
218.0,0.0951,218.0,0.1878,218.0,0.2816,218.0,0.3762,218.0,0.4688,218.0,0.5678,218.0,0.6983,218.0,0.9452,
217.0,0.1089,217.0,0.2077,217.0,0.3184,217.0,0.4267,217.0,0.5319,217.0,0.6405,217.0,0.7834,217.0,1.0636,
216.0,0.1206,216.0,0.2345,216.0,0.3578,216.0,0.4714,216.0,0.5934,216.0,0.7153,216.0,0.8828,216.0,1.1893,
215.0,0.1331,215.0,0.2617,215.0,0.3965,215.0,0.5254,215.0,0.6637,215.0,0.7947,215.0,0.9793,215.0,1.3212,
214.0,0.1472,214.0,0.2854,214.0,0.4350,214.0,0.5780,214.0,0.7299,214.0,0.8852,214.0,1.0725,214.0,1.4526,
213.0,0.1593,213.0,0.3118,213.0,0.4717,213.0,0.6334,213.0,0.7930,213.0,0.9483,213.0,1.1808,213.0,1.5785,
212.0,0.1735,212.0,0.3355,212.0,0.5106,212.0,0.6782,212.0,0.8536,212.0,1.0357,212.0,1.2690,212.0,1.7002,
211.0,0.1828,211.0,0.3614,211.0,0.5439,211.0,0.7277,211.0,0.9068,211.0,1.0975,211.0,1.3544,211.0,1.8079,
210.0,0.1907,210.0,0.3783,210.0,0.5736,210.0,0.7651,210.0,0.9644,210.0,1.1578,210.0,1.4300,210.0,1.9174,
209.0,0.1987,209.0,0.3969,209.0,0.5984,209.0,0.7987,209.0,0.9982,209.0,1.2048,209.0,1.5001,209.0,1.9952,
208.0,0.2083,208.0,0.4077,208.0,0.6147,208.0,0.8239,208.0,1.0270,208.0,1.2441,208.0,1.5493,208.0,2.0433,
207.0,0.2091,207.0,0.4134,207.0,0.6269,207.0,0.8312,207.0,1.0492,207.0,1.2638,207.0,1.5716,207.0,2.0861,
206.0,0.2113,206.0,0.4203,206.0,0.6247,206.0,0.8415,206.0,1.0492,206.0,1.2639,206.0,1.5742,206.0,2.0962,
205.0,0.2117,205.0,0.4184,205.0,0.6197,205.0,0.8373,205.0,1.0466,205.0,1.2718,205.0,1.5853,205.0,2.0844,
204.0,0.2042,204.0,0.4141,204.0,0.6077,204.0,0.8209,204.0,1.0332,204.0,1.2459,204.0,1.5522,204.0,2.0465,
203.0,0.2029,203.0,0.4012,203.0,0.5840,203.0,0.7844,203.0,0.9964,203.0,1.2145,203.0,1.4953,203.0,1.9696,
202.0,0.1942,202.0,0.3768,202.0,0.5720,202.0,0.7567,202.0,0.9539,202.0,1.1507,202.0,1.4354,202.0,1.8767,
201.0,0.1885,201.0,0.3626,201.0,0.5320,201.0,0.7155,201.0,0.9003,201.0,1.0987,201.0,1.3619,201.0,1.7847,
200.0,0.1669,200.0,0.3389,200.0,0.5001,200.0,0.6760,200.0,0.8449,200.0,1.0045,200.0,1.2683,200.0,1.6649,
